TITLE	Azo-Br-0min
DATA TYPE	ULTRAVIOLET SPECTRUM
ORIGIN	JASCO
OWNER	
DATE	25/07/04
TIME	15:17:27
SPECTROMETER/DATA SYSTEM	
LOCALE	1041
RESOLUTION	
DELTAX	-0.2
XUNITS	NANOMETERS
YUNITS	ABSORBANCE
FIRSTX	  650.0000
LASTX	  300.0000
NPOINTS	    1751
FIRSTY	    -0.00028
MAXY	     0.38715
MINY	    -0.00036
XYDATA
650.0000	-0.000278294
649.8000	-0.000322646
649.6000	-0.000357209
649.4000	-0.000349568
649.2000	-0.000319602
649.0000	-0.000299187
648.8000	-0.000296381
648.6000	-0.00031614
648.4000	-0.000325213
648.2000	-0.000318229
648.0000	-0.000328019
647.8000	-0.000317632
647.6000	-0.000280741
647.4000	-0.000268444
647.2000	-0.00030826
647.0000	-0.00032981
646.8000	-0.000316916
646.6000	-0.000328795
646.4000	-0.000324437
646.2000	-0.000299545
646.0000	-0.000304022
645.8000	-0.00030432
645.6000	-0.000297097
645.4000	-0.000314647
645.2000	-0.000296381
645.0000	-0.000266832
644.8000	-0.000283368
644.6000	-0.000284979
644.4000	-0.000279607
644.2000	-0.000285875
644.0000	-0.000294471
643.8000	-0.000272384
643.6000	-0.00025358
643.4000	-0.00027125
643.2000	-0.000287009
643.0000	-0.000305693
642.8000	-0.000316856
642.6000	-0.000298411
642.4000	-0.000292859
642.2000	-0.000332854
642.0000	-0.000352135
641.8000	-0.000357985
641.6000	-0.000324258
641.4000	-0.000300082
641.2000	-0.000335421
641.0000	-0.00033172
640.8000	-0.000289397
640.6000	-0.00029453
640.4000	-0.000331959
640.2000	-0.00031405
640.0000	-0.000287964
639.8000	-0.000283786
639.6000	-0.000290113
639.4000	-0.000306827
639.2000	-0.000309096
639.0000	-0.000301694
638.8000	-0.000296082
638.6000	-0.000304022
638.4000	-0.000338883
638.2000	-0.000331063
638.0000	-0.000326706
637.8000	-0.000286651
637.6000	-0.000251312
637.4000	-0.000299246
637.2000	-0.000335898
637.0000	-0.000354821
636.8000	-0.00031417
636.6000	-0.000279249
636.4000	-0.000296679
636.2000	-0.000307066
636.0000	-0.000273279
635.8000	-0.000263728
635.6000	-0.000299903
635.4000	-0.000317214
635.2000	-0.000319363
635.0000	-0.000319602
634.8000	-0.000288382
634.6000	-0.000289755
634.4000	-0.000299545
634.2000	-0.000318707
634.0000	-0.000338047
633.8000	-0.000289098
633.6000	-0.00027322
633.4000	-0.000300739
633.2000	-0.000293277
633.0000	-0.000289098
632.8000	-0.000306111
632.6000	-0.000305634
632.4000	-0.000304917
632.2000	-0.000284621
632.0000	-0.000294411
631.8000	-0.000303485
631.6000	-0.000290949
631.4000	-0.000270653
631.2000	-0.000285576
631.0000	-0.00031799
630.8000	-0.000295127
630.6000	-0.000279786
630.4000	-0.000302828
630.2000	-0.000315185
630.0000	-0.000281637
629.8000	-0.000286233
629.6000	-0.000301216
629.4000	-0.000289755
629.2000	-0.00029465
629.0000	-0.000283905
628.8000	-0.000301395
628.6000	-0.000264146
628.4000	-0.00026528
628.2000	-0.000288442
628.0000	-0.000246477
627.8000	-0.000244029
627.6000	-0.00024982
627.4000	-0.000263191
627.2000	-0.000264385
627.0000	-0.00025555
626.8000	-0.000254177
626.6000	-0.000266832
626.4000	-0.000274652
626.2000	-0.000246417
626.0000	-0.000230121
625.8000	-0.000242298
625.6000	-0.000238597
625.4000	-0.00025746
625.2000	-0.000283666
625.0000	-0.000289277
624.8000	-0.000271548
624.6000	-0.000258416
624.4000	-0.0002731
624.2000	-0.000272205
624.0000	-0.000233881
623.8000	-0.000223554
623.6000	-0.000254894
623.4000	-0.000264266
623.2000	-0.000250655
623.0000	-0.000261221
622.8000	-0.000288322
622.6000	-0.000275488
622.4000	-0.000266116
622.2000	-0.000280622
622.0000	-0.00028104
621.8000	-0.000276622
621.6000	-0.000261699
621.4000	-0.000249044
621.2000	-0.000241403
621.0000	-0.000251193
620.8000	-0.000254894
620.6000	-0.000233463
620.4000	-0.000227793
620.2000	-0.000242776
620.0000	-0.000245104
619.8000	-0.000277339
619.6000	-0.000268922
619.4000	-0.000213048
619.2000	-0.000225703
619.0000	-0.000242059
618.8000	-0.000255192
618.6000	-0.000255252
618.4000	-0.000245223
618.2000	-0.000253282
618.0000	-0.000246536
617.8000	-0.000236806
617.6000	-0.000258595
617.4000	-0.000276383
617.2000	-0.000242776
617.0000	-0.000248208
616.8000	-0.000251013
616.6000	-0.000228986
616.4000	-0.000220331
616.2000	-0.000224509
616.0000	-0.000231553
615.8000	-0.00023412
615.6000	-0.00024588
615.4000	-0.000230359
615.2000	-0.000222659
615.0000	-0.000236269
614.8000	-0.000252625
614.6000	-0.000236448
614.4000	-0.000219853
614.2000	-0.000225942
614.0000	-0.000257102
613.8000	-0.000256864
613.6000	-0.000211377
613.4000	-0.000228986
613.2000	-0.000230658
613.0000	-0.000199259
612.8000	-0.000237881
612.6000	-0.000299724
612.4000	-0.000261758
612.2000	-0.000202243
612.0000	-0.000250536
611.8000	-0.000267847
611.6000	-0.000236269
611.4000	-0.000226897
611.2000	-0.000227554
611.0000	-0.000228091
610.8000	-0.000215675
610.6000	-0.000217525
610.4000	-0.000202064
610.2000	-0.00017956
610.0000	-0.000177709
609.8000	-0.000198363
609.6000	-0.000225285
609.4000	-0.000231971
609.2000	-0.000244686
609.0000	-0.000240507
608.8000	-0.000230718
608.6000	-0.000219973
608.4000	-0.000220928
608.2000	-0.000204333
608.0000	-0.000194543
607.8000	-0.00020678
607.6000	-0.00018726
607.4000	-0.000182127
607.2000	-0.000216152
607.0000	-0.000226002
606.8000	-0.000207914
606.6000	-0.000189409
606.4000	-0.000177411
606.2000	-0.000201587
606.0000	-0.000196214
605.8000	-0.00019502
605.6000	-0.000210063
605.4000	-0.000196453
605.2000	-0.00020869
605.0000	-0.000230718
604.8000	-0.000195259
604.6000	-0.000160517
604.4000	-0.000175799
604.2000	-0.000203437
604.0000	-0.000206064
603.8000	-0.000180455
603.6000	-0.00018332
603.4000	-0.000201348
603.2000	-0.000220868
603.0000	-0.000217585
602.8000	-0.000191976
602.6000	-0.000182365
602.4000	-0.000180455
602.2000	-0.000178605
602.0000	-0.000153712
601.8000	-0.000158667
601.6000	-0.000214003
601.4000	-0.000224091
601.2000	-0.000217107
601.0000	-0.000191021
600.8000	-0.000158667
600.6000	-0.000186365
600.4000	-0.000182365
600.2000	-0.000157055
600.0000	-0.000167621
599.8000	-0.000179142
599.6000	-0.000156339
599.4000	-0.000119328
599.2000	-0.000147086
599.0000	-0.000190603
598.8000	-0.00020881
598.6000	-0.000195379
598.4000	-0.000155682
598.2000	-0.000153772
598.0000	-0.000165293
597.8000	-0.000152876
597.6000	-0.000182723
597.4000	-0.000203855
597.2000	-0.000164159
597.0000	-0.000161771
596.8000	-0.00017168
596.6000	-0.000147683
596.4000	-0.000142728
596.2000	-0.000135923
596.0000	-0.000151742
595.8000	-0.000180395
595.6000	-0.000158726
595.4000	-0.000155682
595.2000	-0.000181052
595.0000	-0.00016201
594.8000	-0.00013855
594.6000	-0.000147206
594.4000	-0.000156816
594.2000	-0.000123209
594.0000	-8.88844E-005
593.8000	-0.000116165
593.6000	-0.000141594
593.4000	-0.000142072
593.2000	-0.000144877
593.0000	-0.000143922
592.8000	-0.000129357
592.6000	-0.000108882
592.4000	-0.000137058
592.2000	-0.000156876
592.0000	-0.000145773
591.8000	-0.000148399
591.6000	-0.000127924
591.4000	-9.84952E-005
591.2000	-0.000119687
591.0000	-0.000139983
590.8000	-0.000124999
590.6000	-0.00014243
590.4000	-0.000108285
590.2000	-8.48252E-005
590.0000	-9.44957E-005
589.8000	-7.94528E-005
589.6000	-7.16329E-005
589.4000	-0.000112702
589.2000	-0.000151324
589.0000	-0.00015419
588.8000	-0.000166188
588.6000	-0.000137416
588.4000	-0.00010918
588.2000	-0.000108703
588.0000	-9.00186E-005
587.8000	-9.87937E-005
587.6000	-9.99278E-005
587.4000	-7.99303E-005
587.2000	-7.71247E-005
587.0000	-3.90996E-005
586.8000	-3.82042E-005
586.6000	-7.18716E-005
586.4000	-8.22584E-005
586.2000	-9.951E-005
586.0000	-0.000123507
585.8000	-7.65875E-005
585.6000	-4.85313E-005
585.4000	-7.68262E-005
585.2000	-6.88272E-005
585.0000	-5.96344E-005
584.8000	-7.35431E-005
584.6000	-5.32471E-005
584.4000	-3.77266E-005
584.2000	-5.34859E-005
584.0000	-6.62007E-005
583.8000	-5.93956E-005
583.6000	-3.67715E-005
583.4000	-3.74879E-005
583.2000	-1.19985E-005
583.0000	-1.97587E-005
582.8000	-4.81134E-005
582.6000	-4.57256E-005
582.4000	-2.52506E-005
582.2000	-3.67715E-005
582.0000	-6.48277E-005
581.8000	-5.18741E-005
581.6000	-6.1664E-005
581.4000	-6.02313E-005
581.2000	-1.6774E-005
581.0000	-1.18194E-005
580.8000	-2.62057E-005
580.6000	-2.52506E-005
580.4000	-2.59669E-005
580.2000	-1.41475E-005
580.0000	-1.91618E-005
579.8000	-5.79032E-005
579.6000	-3.40256E-005
579.4000	2.08929E-006
579.2000	4.77552E-007
579.0000	1.30133E-005
578.8000	9.90921E-006
578.6000	-1.27745E-005
578.4000	-4.20843E-005
578.2000	-4.88894E-005
578.0000	8.23778E-006
577.8000	5.61721E-005
577.6000	1.32521E-005
577.4000	4.0592E-006
577.2000	4.17858E-005
577.0000	3.16975E-005
576.8000	2.71608E-005
576.6000	3.47419E-005
576.4000	2.66832E-005
576.2000	5.52767E-005
576.0000	5.12772E-005
575.8000	1.03868E-005
575.6000	3.68312E-005
575.4000	4.63226E-005
575.2000	8.14824E-005
575.0000	0.000105599
574.8000	6.73349E-005
574.6000	4.65017E-005
574.4000	7.50951E-005
574.2000	0.000118851
574.0000	9.5212E-005
573.8000	9.90324E-005
573.6000	0.000133416
573.4000	0.000105121
573.2000	8.02885E-005
573.0000	8.38104E-005
572.8000	0.000142311
572.6000	0.000167621
572.4000	0.000148698
572.2000	0.000143027
572.0000	0.000109897
571.8000	0.00012291
571.6000	0.000166666
571.4000	0.00016977
571.2000	0.000156757
571.0000	0.000171441
570.8000	0.000167143
570.6000	0.000152757
570.4000	0.000185171
570.2000	0.000187977
570.0000	0.000182067
569.8000	0.000196513
569.6000	0.000162189
569.4000	0.000150787
569.2000	0.000200094
569.0000	0.000212332
568.8000	0.000219017
568.6000	0.000236985
568.4000	0.000230121
568.2000	0.000246954
568.0000	0.000212332
567.8000	0.000211675
567.6000	0.000266116
567.4000	0.000268265
567.2000	0.000264027
567.0000	0.000270175
566.8000	0.000247193
566.6000	0.000252625
566.4000	0.000275906
566.2000	0.000300619
566.0000	0.000318707
565.8000	0.000318527
565.6000	0.000315304
565.4000	0.000300858
565.2000	0.000300022
565.0000	0.000333929
564.8000	0.000329213
564.6000	0.000283069
564.4000	0.000316737
564.2000	0.000387653
564.0000	0.000398398
563.8000	0.000373924
563.6000	0.000388907
563.4000	0.000394637
563.2000	0.000394876
563.0000	0.000365686
562.8000	0.000363716
562.6000	0.000414098
562.4000	0.000410994
562.2000	0.000410994
562.0000	0.000431648
561.8000	0.000450392
561.6000	0.000478866
561.4000	0.000463882
561.2000	0.000465554
561.0000	0.000504474
560.8000	0.000506385
560.6000	0.000508295
560.4000	0.000510444
560.2000	0.000498087
560.0000	0.000501908
559.8000	0.000536172
559.6000	0.000562378
559.4000	0.000526143
559.2000	0.00052095
559.0000	0.000549782
558.8000	0.000587807
558.6000	0.000596224
558.4000	0.000571869
558.2000	0.000604701
558.0000	0.000618251
557.8000	0.000642069
557.6000	0.000691496
557.4000	0.000697226
557.2000	0.000678841
557.0000	0.000664395
556.8000	0.000656635
556.6000	0.000666126
556.4000	0.000689466
556.2000	0.00070427
556.0000	0.000695794
555.8000	0.000714657
555.6000	0.000742236
555.4000	0.000789573
555.2000	0.000779545
555.0000	0.00075125
554.8000	0.00077453
554.6000	0.000781932
554.4000	0.000837388
554.2000	0.000887651
554.0000	0.000901559
553.8000	0.000895172
553.6000	0.00086622
553.4000	0.000841567
553.2000	0.000869444
553.0000	0.000950449
552.8000	0.000928123
552.6000	0.000908006
552.4000	0.000950926
552.2000	0.000971759
552.0000	0.000966745
551.8000	0.000953254
551.6000	0.00101044
551.4000	0.00104578
551.2000	0.00101253
551.0000	0.0010228
550.8000	0.00106852
550.6000	0.0010567
550.4000	0.00106823
550.2000	0.0011155
550.0000	0.00115078
549.8000	0.0011192
549.6000	0.00108661
549.4000	0.0011315
549.2000	0.00117173
549.0000	0.00118785
548.8000	0.00117108
548.6000	0.00117932
548.4000	0.00119537
548.2000	0.00123513
548.0000	0.00128056
547.8000	0.00127256
547.6000	0.00129041
547.4000	0.001291
547.2000	0.00132252
547.0000	0.00133333
546.8000	0.00130312
546.6000	0.00136783
546.4000	0.0013966
546.2000	0.00136783
546.0000	0.00138025
545.8000	0.00141875
545.6000	0.00143045
545.4000	0.00143051
545.2000	0.00144973
545.0000	0.00146746
544.8000	0.00150716
544.6000	0.00156261
544.4000	0.00159341
544.2000	0.00160499
544.0000	0.00160613
543.8000	0.00159258
543.6000	0.00161896
543.4000	0.00167131
543.2000	0.0017131
543.0000	0.00172623
542.8000	0.00172086
542.6000	0.00176163
542.4000	0.00179321
542.2000	0.0017707
542.0000	0.00178473
541.8000	0.00183016
541.6000	0.00185851
541.4000	0.00190884
541.2000	0.00194585
541.0000	0.001924
540.8000	0.00193158
540.6000	0.00197002
540.4000	0.00199193
540.2000	0.00200823
540.0000	0.00203855
539.8000	0.00207449
539.6000	0.00208458
539.4000	0.00209663
539.2000	0.00211013
539.0000	0.00213609
538.8000	0.00217268
538.6000	0.00218976
538.4000	0.00223745
538.2000	0.00224903
538.0000	0.00221793
537.8000	0.00224485
537.6000	0.00230526
537.4000	0.00233368
537.2000	0.00230831
537.0000	0.00232819
536.8000	0.00242328
536.6000	0.00247104
536.4000	0.00244453
536.2000	0.00246262
536.0000	0.00251342
535.8000	0.00252786
535.6000	0.00258284
535.4000	0.00265334
535.2000	0.00264021
535.0000	0.00265501
534.8000	0.00270659
534.6000	0.0027153
534.4000	0.00270856
534.2000	0.00278532
534.0000	0.00283469
533.8000	0.00281159
533.6000	0.00288131
533.4000	0.00293713
533.2000	0.00290167
533.0000	0.00290668
532.8000	0.0029579
532.6000	0.00300261
532.4000	0.00304255
532.2000	0.00308881
532.0000	0.00314409
531.8000	0.00319077
531.6000	0.00321948
531.4000	0.00322354
531.2000	0.00323948
531.0000	0.00330162
530.8000	0.00330132
530.6000	0.00329141
530.4000	0.00337379
530.2000	0.00341247
530.0000	0.0034413
529.8000	0.00352135
529.6000	0.00356344
529.4000	0.00355496
529.2000	0.00359376
529.0000	0.00365889
528.8000	0.00367542
528.6000	0.00368557
528.4000	0.00365787
528.2000	0.00369506
528.0000	0.0037803
527.8000	0.00383367
527.6000	0.00387152
527.4000	0.00387647
527.2000	0.00392387
527.0000	0.00399073
526.8000	0.00403484
526.6000	0.00402302
526.4000	0.0040771
526.2000	0.00416676
526.0000	0.00419142
525.8000	0.00422079
525.6000	0.00428353
525.4000	0.0043317
525.2000	0.00432018
525.0000	0.00434585
524.8000	0.00439718
524.6000	0.00441921
524.4000	0.00448661
524.2000	0.00455651
524.0000	0.00456283
523.8000	0.00460343
523.6000	0.00464647
523.4000	0.00467219
523.2000	0.00471213
523.0000	0.00475941
522.8000	0.00479307
522.6000	0.00478585
522.4000	0.00487068
522.2000	0.00494923
522.0000	0.00500803
521.8000	0.00506677
521.6000	0.00505304
521.4000	0.00510098
521.2000	0.0051944
521.0000	0.00523666
520.8000	0.00528507
520.6000	0.00533277
520.4000	0.0053613
520.2000	0.00542452
520.0000	0.00548767
519.8000	0.00550713
519.6000	0.00553716
519.4000	0.00563064
519.2000	0.00571624
519.0000	0.00569989
518.8000	0.00572335
518.6000	0.0058216
518.4000	0.00587216
518.2000	0.00589461
518.0000	0.00594362
517.8000	0.00598612
517.6000	0.0060559
517.4000	0.0061107
517.2000	0.00615708
517.0000	0.00622555
516.8000	0.00627432
516.6000	0.0063456
516.4000	0.00637861
516.2000	0.00641747
516.0000	0.00646021
515.8000	0.00652259
515.6000	0.00664216
515.4000	0.00670012
515.2000	0.00667517
515.0000	0.0067163
514.8000	0.00680441
514.6000	0.00684255
514.4000	0.00690636
514.2000	0.00700647
514.0000	0.00708204
513.8000	0.00712043
513.6000	0.00719248
513.4000	0.0072545
513.2000	0.00729467
513.0000	0.00730757
512.8000	0.00735914
512.6000	0.00748707
512.4000	0.00754724
512.2000	0.00759619
512.0000	0.00763696
511.8000	0.00765505
511.6000	0.00770764
511.4000	0.00783723
511.2000	0.00790928
511.0000	0.00795889
510.8000	0.00802449
510.6000	0.00810174
510.4000	0.00813803
510.2000	0.0081557
510.0000	0.00824936
509.8000	0.00831699
509.6000	0.00839686
509.4000	0.00847739
509.2000	0.00855213
509.0000	0.00858287
508.8000	0.00858281
508.6000	0.00865337
508.4000	0.00874733
508.2000	0.00883812
508.0000	0.00891728
507.8000	0.00897637
507.6000	0.00901989
507.4000	0.00911188
507.2000	0.009197
507.0000	0.00925544
506.8000	0.00929806
506.6000	0.00936433
506.4000	0.00946378
506.2000	0.00952019
506.0000	0.0096003
505.8000	0.0096813
505.6000	0.00972201
505.4000	0.00979615
505.2000	0.00988343
505.0000	0.00996318
504.8000	0.01002
504.6000	0.0101019
504.4000	0.0101879
504.2000	0.0101746
504.0000	0.0102536
503.8000	0.010392
503.6000	0.0104717
503.4000	0.0105484
503.2000	0.0106049
503.0000	0.010671
502.8000	0.0107172
502.6000	0.0107966
502.4000	0.0109147
502.2000	0.0110085
502.0000	0.0111043
501.8000	0.0111585
501.6000	0.0112342
501.4000	0.011276
501.2000	0.0113098
501.0000	0.0113836
500.8000	0.0114441
500.6000	0.0115197
500.4000	0.0116449
500.2000	0.0117799
500.0000	0.0119306
499.8000	0.011995
499.6000	0.0120132
499.4000	0.0120672
499.2000	0.0121306
499.0000	0.0122114
498.8000	0.0123707
498.6000	0.0124904
498.4000	0.0125126
498.2000	0.0125232
498.0000	0.0126039
497.8000	0.0127283
497.6000	0.0127955
497.4000	0.0128207
497.2000	0.012909
497.0000	0.0130232
496.8000	0.0131185
496.6000	0.0131452
496.4000	0.0132242
496.2000	0.0134252
496.0000	0.0135026
495.8000	0.0134868
495.6000	0.0135691
495.4000	0.0137136
495.2000	0.0138112
495.0000	0.0139104
494.8000	0.0140156
494.6000	0.0140716
494.4000	0.0141814
494.2000	0.0141854
494.0000	0.0142049
493.8000	0.0143608
493.6000	0.0145034
493.4000	0.0146064
493.2000	0.0146798
493.0000	0.0147919
492.8000	0.0148278
492.6000	0.014874
492.4000	0.0150015
492.2000	0.0150408
492.0000	0.0151345
491.8000	0.0152711
491.6000	0.015361
491.4000	0.0154143
491.2000	0.0154431
491.0000	0.0156107
490.8000	0.0157496
490.6000	0.0158962
490.4000	0.0159637
490.2000	0.0159183
490.0000	0.0160414
489.8000	0.0161576
489.6000	0.0161595
489.4000	0.0161757
489.2000	0.0163388
489.0000	0.0165393
488.8000	0.0165422
488.6000	0.0166211
488.4000	0.0167809
488.2000	0.0167989
488.0000	0.0169454
487.8000	0.017085
487.6000	0.0170523
487.4000	0.0171516
487.2000	0.0173128
487.0000	0.0174162
486.8000	0.0174923
486.6000	0.0175569
486.4000	0.0176229
486.2000	0.0177324
486.0000	0.0178919
485.8000	0.0179726
485.6000	0.0180418
485.4000	0.0181316
485.2000	0.0181789
485.0000	0.0182482
484.8000	0.0183706
484.6000	0.018487
484.4000	0.0185659
484.2000	0.018711
484.0000	0.0187666
483.8000	0.0187956
483.6000	0.0188908
483.4000	0.0190714
483.2000	0.0192205
483.0000	0.0191873
482.8000	0.0192811
482.6000	0.0193243
482.4000	0.019398
482.2000	0.0195634
482.0000	0.019623
481.8000	0.0197367
481.6000	0.0198715
481.4000	0.0199698
481.2000	0.0200473
481.0000	0.0201648
480.8000	0.0202657
480.6000	0.0203998
480.4000	0.020492
480.2000	0.0205382
480.0000	0.0205898
479.8000	0.0207061
479.6000	0.0208775
479.4000	0.0209022
479.2000	0.020917
479.0000	0.0209955
478.8000	0.0212011
478.6000	0.0213777
478.4000	0.0214221
478.2000	0.0214702
478.0000	0.0215686
477.8000	0.021684
477.6000	0.0218262
477.4000	0.0219068
477.2000	0.0219109
477.0000	0.0219589
476.8000	0.022073
476.6000	0.0221768
476.4000	0.0222134
476.2000	0.0222379
476.0000	0.0223859
475.8000	0.022553
475.6000	0.0225852
475.4000	0.022663
475.2000	0.0228302
475.0000	0.0229543
474.8000	0.023031
474.6000	0.0230609
474.4000	0.0231251
474.2000	0.0232936
474.0000	0.0233889
473.8000	0.0233548
473.6000	0.0233344
473.4000	0.0234998
473.2000	0.0236588
473.0000	0.023707
472.8000	0.0238015
472.6000	0.0239023
472.4000	0.023982
472.2000	0.0240998
472.0000	0.0241913
471.8000	0.0243138
471.6000	0.0244507
471.4000	0.0245123
471.2000	0.0246261
471.0000	0.0247841
470.8000	0.0248253
470.6000	0.0248388
470.4000	0.0249381
470.2000	0.0250768
470.0000	0.02516
469.8000	0.0251791
469.6000	0.0252964
469.4000	0.0254081
469.2000	0.025459
469.0000	0.0254452
468.8000	0.0255691
468.6000	0.0257063
468.4000	0.025755
468.2000	0.0258835
468.0000	0.0259941
467.8000	0.0260652
467.6000	0.026131
467.4000	0.0262097
467.2000	0.0262593
467.0000	0.0264589
466.8000	0.0265368
466.6000	0.0264307
466.4000	0.0264591
466.2000	0.0265582
466.0000	0.0266552
465.8000	0.0267661
465.6000	0.0269038
465.4000	0.0270181
465.2000	0.0271062
465.0000	0.0271946
464.8000	0.0272523
464.6000	0.0273116
464.4000	0.0273389
464.2000	0.0274403
464.0000	0.0275767
463.8000	0.0276376
463.6000	0.0276961
463.4000	0.0277741
463.2000	0.0277611
463.0000	0.0277174
462.8000	0.0278641
462.6000	0.0280101
462.4000	0.0280712
462.2000	0.0281986
462.0000	0.0281963
461.8000	0.0282262
461.6000	0.0283534
461.4000	0.028389
461.2000	0.0284445
461.0000	0.0285043
460.8000	0.0286331
460.6000	0.0287307
460.4000	0.0287914
460.2000	0.0288529
460.0000	0.0289539
459.8000	0.0290548
459.6000	0.0291939
459.4000	0.029194
459.2000	0.0291727
459.0000	0.0292145
458.8000	0.0291912
458.6000	0.0293134
458.4000	0.0294502
458.2000	0.0294944
458.0000	0.0295627
457.8000	0.0296486
457.6000	0.0296024
457.4000	0.0296
457.2000	0.0297385
457.0000	0.0298461
456.8000	0.0299122
456.6000	0.0300263
456.4000	0.0300696
456.2000	0.0301628
456.0000	0.0302558
455.8000	0.030211
455.6000	0.0302889
455.4000	0.0303927
455.2000	0.0304813
455.0000	0.0304985
454.8000	0.0305586
454.6000	0.0305872
454.4000	0.0305629
454.2000	0.0307019
454.0000	0.030795
453.8000	0.030842
453.6000	0.0308217
453.4000	0.0308276
453.2000	0.0309144
453.0000	0.0309766
452.8000	0.0309328
452.6000	0.0309328
452.4000	0.0310702
452.2000	0.0312381
452.0000	0.0313249
451.8000	0.031273
451.6000	0.0312796
451.4000	0.0313102
451.2000	0.0314443
451.0000	0.0316105
450.8000	0.0315139
450.6000	0.0314576
450.4000	0.031577
450.2000	0.0315539
450.0000	0.031548
449.8000	0.0316543
449.6000	0.0317239
449.4000	0.0317984
449.2000	0.0318381
449.0000	0.0319138
448.8000	0.0319311
448.6000	0.0319381
448.4000	0.0319416
448.2000	0.0319923
448.0000	0.0321901
447.8000	0.032151
447.6000	0.032061
447.4000	0.0322463
447.2000	0.0322766
447.0000	0.0321851
446.8000	0.0323984
446.6000	0.0324546
446.4000	0.032448
446.2000	0.0325115
446.0000	0.0323941
445.8000	0.0324243
445.6000	0.0324842
445.4000	0.0324659
445.2000	0.0325476
445.0000	0.0327122
444.8000	0.0326725
444.6000	0.032557
444.4000	0.0326451
444.2000	0.0328161
444.0000	0.0329995
443.8000	0.0328156
443.6000	0.0326524
443.4000	0.0327946
443.2000	0.0329151
443.0000	0.0329228
442.8000	0.0329403
442.6000	0.0329589
442.4000	0.0329089
442.2000	0.0330371
442.0000	0.0330638
441.8000	0.0330349
441.6000	0.033182
441.4000	0.0332878
441.2000	0.0333317
441.0000	0.033321
440.8000	0.0332899
440.6000	0.0333552
440.4000	0.0334045
440.2000	0.0335065
440.0000	0.0334927
439.8000	0.0333216
439.6000	0.0334084
439.4000	0.0334544
439.2000	0.0335395
439.0000	0.0336645
438.8000	0.0335195
438.6000	0.0335461
438.4000	0.0337743
438.2000	0.03391
438.0000	0.0339861
437.8000	0.0338869
437.6000	0.0337637
437.4000	0.0338397
437.2000	0.0339694
437.0000	0.0339162
436.8000	0.0340321
436.6000	0.0340606
436.4000	0.0339592
436.2000	0.0341092
436.0000	0.0343412
435.8000	0.0345387
435.6000	0.0344538
435.4000	0.0343779
435.2000	0.0343458
435.0000	0.0344542
434.8000	0.0345227
434.6000	0.0345051
434.4000	0.0344414
434.2000	0.0344966
434.0000	0.0343411
433.8000	0.0342452
433.6000	0.0345631
433.4000	0.0347443
433.2000	0.034826
433.0000	0.0348748
432.8000	0.0350962
432.6000	0.0350991
432.4000	0.0350343
432.2000	0.0351918
432.0000	0.0352438
431.8000	0.035294
431.6000	0.0353617
431.4000	0.0354506
431.2000	0.0355037
431.0000	0.0354935
430.8000	0.0355733
430.6000	0.0355722
430.4000	0.0355769
430.2000	0.0357943
430.0000	0.0359348
429.8000	0.0359066
429.6000	0.0360854
429.4000	0.0361818
429.2000	0.0361036
429.0000	0.0362573
428.8000	0.0366131
428.6000	0.0366485
428.4000	0.036437
428.2000	0.0364879
428.0000	0.0367086
427.8000	0.0370061
427.6000	0.0371559
427.4000	0.0372498
427.2000	0.0374483
427.0000	0.0377523
426.8000	0.0380034
426.6000	0.0380398
426.4000	0.0379439
426.2000	0.0380547
426.0000	0.0384151
425.8000	0.0385366
425.6000	0.0387178
425.4000	0.0386846
425.2000	0.0387595
425.0000	0.0390011
424.8000	0.0390318
424.6000	0.0392858
424.4000	0.039504
424.2000	0.0398009
424.0000	0.0401681
423.8000	0.0403964
423.6000	0.0405963
423.4000	0.0407774
423.2000	0.0408673
423.0000	0.0411213
422.8000	0.0414588
422.6000	0.0416597
422.4000	0.0417225
422.2000	0.0420974
422.0000	0.0427229
421.8000	0.0428788
421.6000	0.0429924
421.4000	0.0433299
421.2000	0.0432872
421.0000	0.0434055
420.8000	0.0441376
420.6000	0.044795
420.4000	0.0451064
420.2000	0.045146
420.0000	0.0455562
419.8000	0.046129
419.6000	0.0461074
419.4000	0.0464128
419.2000	0.0470032
419.0000	0.0474887
418.8000	0.0480766
418.6000	0.0485689
418.4000	0.0488632
418.2000	0.049029
418.0000	0.0491816
417.8000	0.049718
417.6000	0.05058
417.4000	0.0509006
417.2000	0.0514634
417.0000	0.0520831
416.8000	0.0524136
416.6000	0.0528728
416.4000	0.053649
416.2000	0.0544604
416.0000	0.0547901
415.8000	0.0552379
415.6000	0.0557552
415.4000	0.0562151
415.2000	0.0568477
415.0000	0.0575005
414.8000	0.0578086
414.6000	0.0586681
414.4000	0.0598328
414.2000	0.0603844
414.0000	0.0606349
413.8000	0.061299
413.6000	0.0619701
413.4000	0.0624947
413.2000	0.0633043
413.0000	0.0643146
412.8000	0.0651724
412.6000	0.0658095
412.4000	0.066692
412.2000	0.0674392
412.0000	0.0684324
411.8000	0.0693767
411.6000	0.0699762
411.4000	0.0711547
411.2000	0.0720843
411.0000	0.0727952
410.8000	0.0737268
410.6000	0.0741619
410.4000	0.0751467
410.2000	0.076376
410.0000	0.0774738
409.8000	0.0788466
409.6000	0.0798824
409.4000	0.0810027
409.2000	0.0818768
409.0000	0.0826653
408.8000	0.0840681
408.6000	0.0854463
408.4000	0.0866688
408.2000	0.0875674
408.0000	0.0885978
407.8000	0.089396
407.6000	0.0899149
407.4000	0.0919672
407.2000	0.0940608
407.0000	0.095267
406.8000	0.0961503
406.6000	0.0971839
406.4000	0.0983816
406.2000	0.0994665
406.0000	0.100859
405.8000	0.101912
405.6000	0.103988
405.4000	0.105831
405.2000	0.106489
405.0000	0.107935
404.8000	0.109597
404.6000	0.111357
404.4000	0.112316
404.2000	0.113652
404.0000	0.116028
403.8000	0.11771
403.6000	0.118752
403.4000	0.120282
403.2000	0.1226
403.0000	0.124917
402.8000	0.126573
402.6000	0.12842
402.4000	0.130111
402.2000	0.130406
402.0000	0.132085
401.8000	0.134512
401.6000	0.136161
401.4000	0.137122
401.2000	0.13899
401.0000	0.140969
400.8000	0.141954
400.6000	0.144152
400.4000	0.146084
400.2000	0.147724
400.0000	0.150856
399.8000	0.152522
399.6000	0.154487
399.4000	0.156616
399.2000	0.158116
399.0000	0.159824
398.8000	0.161934
398.6000	0.163869
398.4000	0.165841
398.2000	0.167785
398.0000	0.169367
397.8000	0.171582
397.6000	0.173872
397.4000	0.175505
397.2000	0.177428
397.0000	0.179402
396.8000	0.18134
396.6000	0.183421
396.4000	0.185481
396.2000	0.187383
396.0000	0.189293
395.8000	0.191503
395.6000	0.193737
395.4000	0.195825
395.2000	0.198061
395.0000	0.199844
394.8000	0.20147
394.6000	0.203744
394.4000	0.205665
394.2000	0.207745
394.0000	0.209963
393.8000	0.212027
393.6000	0.214366
393.4000	0.216144
393.2000	0.217937
393.0000	0.220146
392.8000	0.221854
392.6000	0.223806
392.4000	0.226178
392.2000	0.227961
392.0000	0.229851
391.8000	0.232287
391.6000	0.234182
391.4000	0.236043
391.2000	0.238148
391.0000	0.239982
390.8000	0.241853
390.6000	0.243944
390.4000	0.245727
390.2000	0.247367
390.0000	0.249299
389.8000	0.251428
389.6000	0.252732
389.4000	0.254377
389.2000	0.257096
389.0000	0.258934
388.8000	0.261012
388.6000	0.263071
388.4000	0.264625
388.2000	0.266428
388.0000	0.268211
387.8000	0.270094
387.6000	0.271953
387.4000	0.273617
387.2000	0.275468
387.0000	0.277126
386.8000	0.278831
386.6000	0.280668
386.4000	0.282238
386.2000	0.284164
386.0000	0.285822
385.8000	0.287273
385.6000	0.288907
385.4000	0.290722
385.2000	0.292584
385.0000	0.293846
384.8000	0.29532
384.6000	0.297104
384.4000	0.298855
384.2000	0.300472
384.0000	0.30217
383.8000	0.303807
383.6000	0.30474
383.4000	0.305987
383.2000	0.30799
383.0000	0.309972
382.8000	0.311405
382.6000	0.312638
382.4000	0.314204
382.2000	0.315965
382.0000	0.317833
381.8000	0.31904
381.6000	0.320463
381.4000	0.322085
381.2000	0.323098
381.0000	0.324344
380.8000	0.325712
380.6000	0.326687
380.4000	0.328037
380.2000	0.3299
380.0000	0.330995
379.8000	0.332107
379.6000	0.33385
379.4000	0.335201
379.2000	0.336343
379.0000	0.337637
378.8000	0.339184
378.6000	0.340792
378.4000	0.341767
378.2000	0.342669
378.0000	0.344144
377.8000	0.345435
377.6000	0.346772
377.4000	0.347988
377.2000	0.348941
377.0000	0.350009
376.8000	0.35105
376.6000	0.352408
376.4000	0.353506
376.2000	0.3545
376.0000	0.355398
375.8000	0.35662
375.6000	0.358084
375.4000	0.358875
375.2000	0.360036
375.0000	0.361015
374.8000	0.361726
374.6000	0.362839
374.4000	0.364125
374.2000	0.364904
374.0000	0.365557
373.8000	0.366756
373.6000	0.36796
373.4000	0.368885
373.2000	0.369502
373.0000	0.37041
372.8000	0.371392
372.6000	0.371662
372.4000	0.372413
372.2000	0.373778
372.0000	0.374509
371.8000	0.375123
371.6000	0.375913
371.4000	0.376698
371.2000	0.377365
371.0000	0.37787
370.8000	0.378291
370.6000	0.379029
370.4000	0.379675
370.2000	0.380045
370.0000	0.381675
369.8000	0.382083
369.6000	0.382016
369.4000	0.38247
369.2000	0.382962
369.0000	0.383464
368.8000	0.384127
368.6000	0.38453
368.4000	0.384662
368.2000	0.385511
368.0000	0.385725
367.8000	0.385612
367.6000	0.385986
367.4000	0.386212
367.2000	0.386263
367.0000	0.385627
366.8000	0.385729
366.6000	0.38646
366.4000	0.385819
366.2000	0.386296
366.0000	0.387149
365.8000	0.38662
365.6000	0.386308
365.4000	0.386449
365.2000	0.386329
365.0000	0.386342
364.8000	0.386297
364.6000	0.385989
364.4000	0.386005
364.2000	0.386213
364.0000	0.385908
363.8000	0.385268
363.6000	0.384935
363.4000	0.384529
363.2000	0.384718
363.0000	0.384088
362.8000	0.383665
362.6000	0.384003
362.4000	0.383722
362.2000	0.383405
362.0000	0.382941
361.8000	0.382511
361.6000	0.381938
361.4000	0.381797
361.2000	0.380996
361.0000	0.380185
360.8000	0.380423
360.6000	0.379877
360.4000	0.379178
360.2000	0.379068
360.0000	0.378231
359.8000	0.376718
359.6000	0.376371
359.4000	0.376079
359.2000	0.37593
359.0000	0.375603
358.8000	0.374321
358.6000	0.373516
358.4000	0.372873
358.2000	0.371987
358.0000	0.371322
357.8000	0.370687
357.6000	0.370159
357.4000	0.369899
357.2000	0.368971
357.0000	0.368343
356.8000	0.368
356.6000	0.366751
356.4000	0.365884
356.2000	0.365195
356.0000	0.364228
355.8000	0.363972
355.6000	0.363433
355.4000	0.362253
355.2000	0.361369
355.0000	0.360753
354.8000	0.359542
354.6000	0.358779
354.4000	0.35777
354.2000	0.356778
354.0000	0.356015
353.8000	0.354766
353.6000	0.354115
353.4000	0.353275
353.2000	0.352294
353.0000	0.351277
352.8000	0.350721
352.6000	0.350008
352.4000	0.348354
352.2000	0.347032
352.0000	0.34589
351.8000	0.344697
351.6000	0.34368
351.4000	0.342997
351.2000	0.342126
351.0000	0.340968
350.8000	0.340107
350.6000	0.338945
350.4000	0.338005
350.2000	0.337342
350.0000	0.335621
349.8000	0.334104
349.6000	0.333091
349.4000	0.331696
349.2000	0.330547
349.0000	0.329042
348.8000	0.327567
348.6000	0.326558
348.4000	0.325763
348.2000	0.324337
348.0000	0.322959
347.8000	0.322608
347.6000	0.321287
347.4000	0.319829
347.2000	0.318668
347.0000	0.316883
346.8000	0.315953
346.6000	0.315082
346.4000	0.313866
346.2000	0.312673
346.0000	0.311174
345.8000	0.309986
345.6000	0.30857
345.4000	0.307034
345.2000	0.306111
345.0000	0.305215
344.8000	0.303485
344.6000	0.301967
344.4000	0.301144
344.2000	0.299394
344.0000	0.297409
343.8000	0.295718
343.6000	0.294553
343.4000	0.293837
343.2000	0.292433
343.0000	0.290515
342.8000	0.28874
342.6000	0.287495
342.4000	0.286346
342.2000	0.28574
342.0000	0.285161
341.8000	0.283459
341.6000	0.281567
341.4000	0.28011
341.2000	0.278387
341.0000	0.276142
340.8000	0.274873
340.6000	0.274096
340.4000	0.273068
340.2000	0.271804
340.0000	0.269824
339.8000	0.267694
339.6000	0.266243
339.4000	0.265584
339.2000	0.264175
339.0000	0.263187
338.8000	0.262141
338.6000	0.261483
338.4000	0.259363
338.2000	0.256838
338.0000	0.255652
337.8000	0.255206
337.6000	0.255203
337.4000	0.25336
337.2000	0.250702
337.0000	0.249707
336.8000	0.248672
336.6000	0.247075
336.4000	0.245351
336.2000	0.243849
336.0000	0.242827
335.8000	0.240704
335.6000	0.239198
335.4000	0.238862
335.2000	0.237258
335.0000	0.235728
334.8000	0.234711
334.6000	0.232677
334.4000	0.231143
334.2000	0.230041
334.0000	0.229303
333.8000	0.227382
333.6000	0.225221
333.4000	0.224813
333.2000	0.222795
333.0000	0.221264
332.8000	0.22167
332.6000	0.219051
332.4000	0.216914
332.2000	0.216903
332.0000	0.215731
331.8000	0.214062
331.6000	0.212708
331.4000	0.21091
331.2000	0.209255
331.0000	0.207811
330.8000	0.206467
330.6000	0.20502
330.4000	0.20326
330.2000	0.202559
330.0000	0.201093
329.8000	0.199549
329.6000	0.198571
329.4000	0.196598
329.2000	0.194819
329.0000	0.193529
328.8000	0.193128
328.6000	0.192302
328.4000	0.19116
328.2000	0.190132
328.0000	0.188473
327.8000	0.187316
327.6000	0.186615
327.4000	0.18445
327.2000	0.182563
327.0000	0.182082
326.8000	0.181109
326.6000	0.179359
326.4000	0.177451
326.2000	0.176466
326.0000	0.175854
325.8000	0.174724
325.6000	0.173538
325.4000	0.171892
325.2000	0.170174
325.0000	0.169111
324.8000	0.167916
324.6000	0.166776
324.4000	0.164892
324.2000	0.164041
324.0000	0.163607
323.8000	0.16292
323.6000	0.162302
323.4000	0.160143
323.2000	0.158809
323.0000	0.157652
322.8000	0.156753
322.6000	0.155682
322.4000	0.155035
322.2000	0.154352
322.0000	0.152475
321.8000	0.151096
321.6000	0.150107
321.4000	0.149296
321.2000	0.147821
321.0000	0.146695
320.8000	0.14543
320.6000	0.144722
320.4000	0.144079
320.2000	0.143534
320.0000	0.143206
319.8000	0.141506
319.6000	0.139883
319.4000	0.139049
319.2000	0.138184
319.0000	0.13633
318.8000	0.135253
318.6000	0.135485
318.4000	0.134736
318.2000	0.13416
318.0000	0.133519
317.8000	0.131625
317.6000	0.131899
317.4000	0.130742
317.2000	0.128337
317.0000	0.127934
316.8000	0.12752
316.6000	0.126907
316.4000	0.126395
316.2000	0.12601
316.0000	0.124736
315.8000	0.123237
315.6000	0.122344
315.4000	0.122492
315.2000	0.121424
315.0000	0.120442
314.8000	0.120783
314.6000	0.11982
314.4000	0.118701
314.2000	0.118319
314.0000	0.117139
313.8000	0.115851
313.6000	0.115876
313.4000	0.115815
313.2000	0.114255
313.0000	0.113162
312.8000	0.113268
312.6000	0.112742
312.4000	0.111556
312.2000	0.110872
312.0000	0.110428
311.8000	0.109449
311.6000	0.108482
311.4000	0.107696
311.2000	0.107518
311.0000	0.107385
310.8000	0.10624
310.6000	0.10597
310.4000	0.105505
310.2000	0.104237
310.0000	0.104527
309.8000	0.10441
309.6000	0.10334
309.4000	0.102113
309.2000	0.101599
309.0000	0.100972
308.8000	0.0995309
308.6000	0.0991312
308.4000	0.0995049
308.2000	0.0995939
308.0000	0.0985064
307.8000	0.0970145
307.6000	0.0969856
307.4000	0.096968
307.2000	0.0969538
307.0000	0.0964511
306.8000	0.0957235
306.6000	0.0959741
306.4000	0.095056
306.2000	0.0944389
306.0000	0.0942305
305.8000	0.0938673
305.6000	0.0923823
305.4000	0.0911551
305.2000	0.0908966
305.0000	0.0904204
304.8000	0.0904711
304.6000	0.0908913
304.4000	0.0907585
304.2000	0.0902459
304.0000	0.0903881
303.8000	0.0900149
303.6000	0.0895321
303.4000	0.0887746
303.2000	0.0885854
303.0000	0.0888443
302.8000	0.0877269
302.6000	0.0873454
302.4000	0.0873526
302.2000	0.0872297
302.0000	0.0874017
301.8000	0.0874797
301.6000	0.0860321
301.4000	0.0850578
301.2000	0.0855077
301.0000	0.0852806
300.8000	0.0851727
300.6000	0.0848442
300.4000	0.0848486
300.2000	0.084613
300.0000	0.0843232

##### Extended Information
[コメント情報]
試料名	Azo-Br-0min
コメント
測定者
所属
会社	日本大学文理学部

[データ情報]
作成日時	2025/07/04 15:17

データタイプ	等間隔データ
横軸	Wavelength [nm]
縦軸	Abs
スタート	650 nm
エンド	300 nm
データ間隔	0.2 nm
データ数	1751    

[測定情報]
装置名	V-730
機種名	V-730
シリアル番号	C235561798

付属品名	USE-753
付属品シリアルNo.	C235561798
  セル	
  対照光束	

測定日時	2025/07/04 15:16

測光モード	Abs
測定範囲	650 - 300 nm
データ取込間隔	0.2 nm
バンド幅	1.0 nm
レスポンス	0.06 sec
走査モード	連続
走査速度	400 nm/min
光源切換	340 nm
光源	D2/WI
フィルター切換	ステップ
補正	ベースライン
積算回数	1

