TITLE,
DATA TYPE,ULTRAVIOLET SPECTRUM
ORIGIN,JASCO
OWNER,
DATE,25/07/01
TIME,17:50:46
SPECTROMETER/DATA SYSTEM,
LOCALE,1041
RESOLUTION,
DELTAX,-0.2
XUNITS,NANOMETERS
YUNITS,ABSORBANCE
FIRSTX,  900.0000
LASTX,  200.0000
NPOINTS,    3501
FIRSTY,     0.00109
MAXY,    10.00000
MINY,    -0.88292
XYDATA
900.0000,0.0010936
899.8000,0.00112481
899.6000,0.00112147
899.4000,0.00109055
899.2000,0.0010647
899.0000,0.00105121
898.8000,0.00105187
898.6000,0.0010884
898.4000,0.00108769
898.2000,0.0010659
898.0000,0.0010644
897.8000,0.00107378
897.6000,0.00106805
897.4000,0.00104041
897.2000,0.0010342
897.0000,0.00104876
896.8000,0.00103002
896.6000,0.00100817
896.4000,0.000991638
896.2000,0.00100746
896.0000,0.00103957
895.8000,0.00102035
895.6000,0.00101331
895.4000,0.00102835
895.2000,0.00101826
895.0000,0.00100919
894.8000,0.000992294
894.6000,0.00100005
894.4000,0.00102853
894.2000,0.000990683
894.0000,0.000974147
893.8000,0.000972655
893.6000,0.000974744
893.4000,0.00100119
893.2000,0.000993846
893.0000,0.000983698
892.8000,0.000971759
892.6000,0.00094627
892.4000,0.000966029
892.2000,0.000970446
892.0000,0.000942868
891.8000,0.000945972
891.6000,0.00094436
891.4000,0.00093857
891.2000,0.000945017
891.0000,0.0009326
890.8000,0.000921199
890.6000,0.000924482
890.4000,0.000914214
890.2000,0.000909857
890.0000,0.000884606
889.8000,0.000875413
889.6000,0.000902873
889.4000,0.000901201
889.2000,0.000883173
889.0000,0.00086431
888.8000,0.000880905
888.6000,0.000915587
888.4000,0.000912782
888.2000,0.000885382
888.0000,0.000868728
887.8000,0.000888068
887.6000,0.000900067
887.4000,0.000890038
887.2000,0.000884487
887.0000,0.000869026
886.8000,0.000869862
886.6000,0.000869742
886.4000,0.000857505
886.2000,0.000882636
886.0000,0.000892605
885.8000,0.000887233
885.6000,0.000881323
885.4000,0.00087213
885.2000,0.000880248
885.0000,0.000880965
884.8000,0.000885919
884.6000,0.000888904
884.4000,0.000894038
884.2000,0.000879592
884.0000,0.000859057
883.8000,0.0008741
883.6000,0.000897739
883.4000,0.000937316
883.2000,0.000925795
883.0000,0.000904126
882.8000,0.000884785
882.6000,0.000884606
882.4000,0.000908424
882.2000,0.000890396
882.0000,0.000908543
881.8000,0.000921557
881.6000,0.000901798
881.4000,0.000930153
881.2000,0.000947166
881.0000,0.000900067
880.8000,0.000876906
880.6000,0.000898694
880.4000,0.000893918
880.2000,0.000900365
880.0000,0.00091499
879.8000,0.000899052
879.6000,0.000861087
879.4000,0.000845984
879.2000,0.000888248
879.0000,0.000882218
878.8000,0.000849566
878.6000,0.000844313
878.4000,0.000837209
878.2000,0.0008233
878.0000,0.000837687
877.8000,0.000857266
877.6000,0.000847178
877.4000,0.000832493
877.2000,0.000824912
877.0000,0.000818823
876.8000,0.000807481
876.6000,0.000801512
876.4000,0.000801631
876.2000,0.000807661
876.0000,0.00078623
875.8000,0.000761696
875.6000,0.00077459
875.4000,0.000778231
875.2000,0.000771486
875.0000,0.000762412
874.8000,0.000743907
874.6000,0.000734595
874.4000,0.000757518
874.2000,0.0007765
874.0000,0.00074134
873.8000,0.000720925
873.6000,0.00071609
873.4000,0.000688272
873.2000,0.000694898
873.0000,0.000715612
872.8000,0.000706419
872.6000,0.000688153
872.4000,0.000700808
872.2000,0.000706718
872.0000,0.000713344
871.8000,0.000710658
871.6000,0.000713225
871.4000,0.000703614
871.2000,0.000667559
871.0000,0.000658246
870.8000,0.00065353
870.6000,0.000644517
870.4000,0.000638129
870.2000,0.000654247
870.0000,0.00068284
869.8000,0.00066135
869.6000,0.000607387
869.4000,0.000592643
869.2000,0.000600522
869.0000,0.000619206
868.8000,0.000623863
868.6000,0.000604104
868.4000,0.000595448
868.2000,0.000610193
868.0000,0.000606193
867.8000,0.000624519
867.6000,0.000648874
867.4000,0.00061658
867.2000,0.000597776
867.0000,0.000584942
866.8000,0.000564049
866.6000,0.00056584
866.4000,0.000576227
866.2000,0.000579152
866.0000,0.000577659
865.8000,0.000563213
865.6000,0.000567273
865.4000,0.000563691
865.2000,0.000546499
865.0000,0.000550618
864.8000,0.0005425
864.6000,0.000538739
864.4000,0.000541843
864.2000,0.000532113
864.0000,0.000519338
863.8000,0.000531277
863.6000,0.000554438
863.4000,0.000544529
863.2000,0.000529247
863.0000,0.000543813
862.8000,0.000548469
862.6000,0.000518503
862.4000,0.000505847
862.2000,0.000517368
862.0000,0.000529486
861.8000,0.000541843
861.6000,0.000551991
861.4000,0.000533247
861.2000,0.000504773
861.0000,0.000517607
860.8000,0.000533665
860.6000,0.000535874
860.4000,0.000501549
860.2000,0.000473971
860.0000,0.000497072
859.8000,0.00051122
859.6000,0.000503758
859.4000,0.000517547
859.2000,0.000527994
859.0000,0.000501729
858.8000,0.000506206
858.6000,0.000507161
858.4000,0.000501967
858.2000,0.00053068
858.0000,0.000522741
857.8000,0.000516413
857.6000,0.000527098
857.4000,0.000490088
857.2000,0.000475941
857.0000,0.000495401
856.8000,0.000500475
856.6000,0.000498983
856.4000,0.000476955
856.2000,0.000451287
856.0000,0.000481552
855.8000,0.000480716
855.6000,0.000473374
855.4000,0.000500117
855.2000,0.000480179
855.0000,0.000481373
854.8000,0.00047803
854.6000,0.000466509
854.4000,0.000479164
854.2000,0.000472896
854.0000,0.00043511
853.8000,0.000432006
853.6000,0.000455525
853.4000,0.000467166
853.2000,0.000461196
853.0000,0.000459047
852.8000,0.00048
852.6000,0.000465196
852.4000,0.000438453
852.2000,0.000433379
852.0000,0.000439348
851.8000,0.000428723
851.6000,0.000403771
851.4000,0.000430931
851.2000,0.00046048
851.0000,0.000445198
850.8000,0.000439766
850.6000,0.000438154
850.4000,0.00045266
850.2000,0.000445915
850.0000,0.000438095
849.8000,0.000433558
849.6000,0.000428365
849.4000,0.000463584
849.2000,0.000469733
849.0000,0.000455645
848.8000,0.000457615
848.6000,0.000458749
848.4000,0.000464897
848.2000,0.000428245
848.0000,0.000399353
847.8000,0.00041947
847.6000,0.000442393
847.4000,0.000453197
847.2000,0.000422873
847.0000,0.000425678
846.8000,0.000406218
846.6000,0.000378401
846.4000,0.000389504
846.2000,0.000400965
846.0000,0.000394279
845.8000,0.000392488
845.6000,0.000401442
845.4000,0.00040777
845.2000,0.000414157
845.0000,0.000423231
844.8000,0.000418754
844.6000,0.000400249
844.4000,0.000392011
844.2000,0.000374819
844.0000,0.000356553
843.8000,0.000371536
843.6000,0.000420425
843.4000,0.000442691
843.2000,0.00043123
843.0000,0.000409322
842.8000,0.000410038
842.6000,0.000405621
842.4000,0.000420545
842.2000,0.000437498
842.0000,0.000415471
841.8000,0.00038055
841.6000,0.000362641
841.4000,0.000373267
841.2000,0.000396548
841.0000,0.0003981
840.8000,0.000379177
840.6000,0.000371058
840.4000,0.000355896
840.2000,0.000338704
840.0000,0.000382221
839.8000,0.000409143
839.6000,0.000390877
839.4000,0.000384967
839.2000,0.000382699
839.0000,0.000377923
838.8000,0.000370163
838.6000,0.000380311
838.4000,0.000371058
838.2000,0.000370461
838.0000,0.000381505
837.8000,0.000356194
837.6000,0.000336973
837.4000,0.000355717
837.2000,0.000369029
837.0000,0.000383355
836.8000,0.000380729
836.6000,0.000374401
836.4000,0.000358164
836.2000,0.000329332
836.0000,0.000362403
835.8000,0.000392309
835.6000,0.000373446
835.4000,0.000353329
835.2000,0.000350703
835.0000,0.000350643
834.8000,0.000354642
834.6000,0.000367477
834.4000,0.000382937
834.2000,0.000392011
834.0000,0.000366462
833.8000,0.00032772
833.6000,0.000336555
833.4000,0.000362104
833.2000,0.000339599
833.0000,0.000324855
832.8000,0.000335839
832.6000,0.00035506
832.4000,0.000366521
832.2000,0.000357209
832.0000,0.000373565
831.8000,0.000375774
831.6000,0.000340256
831.4000,0.000295963
831.2000,0.000296381
831.0000,0.00035309
830.8000,0.000342942
830.6000,0.000309633
830.4000,0.000317334
830.2000,0.000307365
830.0000,0.000332794
829.8000,0.00034933
829.6000,0.000339838
829.4000,0.000330108
829.2000,0.000328138
829.0000,0.000344256
828.8000,0.000354583
828.6000,0.000353031
828.4000,0.000336316
828.2000,0.000343599
828.0000,0.000349091
827.8000,0.000358582
827.6000,0.000351061
827.4000,0.000334346
827.2000,0.00033763
827.0000,0.000317572
826.8000,0.000299485
826.6000,0.000322229
826.4000,0.000324377
826.2000,0.00032199
826.0000,0.000326168
825.8000,0.000302529
825.6000,0.000321273
825.4000,0.000328616
825.2000,0.000307424
825.0000,0.000313155
824.8000,0.000312498
824.6000,0.000305872
824.4000,0.00032396
824.2000,0.00032199
824.0000,0.000313812
823.8000,0.000317393
823.6000,0.000317871
823.4000,0.000333809
823.2000,0.000327482
823.0000,0.0003005
822.8000,0.000290829
822.6000,0.000287845
822.4000,0.000265579
822.2000,0.000277935
822.0000,0.00028677
821.8000,0.000298769
821.6000,0.000319483
821.4000,0.000303126
821.2000,0.000300082
821.0000,0.000303664
820.8000,0.000306768
820.6000,0.000311901
820.4000,0.000316319
820.2000,0.000293575
820.0000,0.000287069
819.8000,0.000302291
819.6000,0.000303186
819.4000,0.000313812
819.2000,0.000322229
819.0000,0.000301216
818.8000,0.000271608
818.6000,0.000263848
818.4000,0.000293217
818.2000,0.000331063
818.0000,0.000302768
817.8000,0.000261878
817.6000,0.000258774
817.4000,0.000299246
817.2000,0.000309872
817.0000,0.000289039
816.8000,0.000287546
816.6000,0.000296978
816.4000,0.000299008
816.2000,0.000303425
816.0000,0.000327302
815.8000,0.00031226
815.6000,0.000298351
815.4000,0.000299664
815.2000,0.000271369
815.0000,0.000263669
814.8000,0.000280025
814.6000,0.000282233
814.4000,0.000291964
814.2000,0.000271847
814.0000,0.000293277
813.8000,0.000315782
813.6000,0.000282233
813.4000,0.000287307
813.2000,0.000319542
813.0000,0.000303425
812.8000,0.000266534
812.6000,0.000270713
812.4000,0.000268981
812.2000,0.00026916
812.0000,0.000275787
811.8000,0.000262117
811.6000,0.000230718
811.4000,0.000241104
811.2000,0.000269817
811.0000,0.000275846
810.8000,0.000257222
810.6000,0.000262117
810.4000,0.000289277
810.2000,0.000250178
810.0000,0.000230718
809.8000,0.000276324
809.6000,0.00029656
809.4000,0.000285039
809.2000,0.000294411
809.0000,0.000287427
808.8000,0.00028683
808.6000,0.000289218
808.4000,0.000272862
808.2000,0.000296799
808.0000,0.000284562
807.8000,0.000233643
807.6000,0.000251133
807.4000,0.000259789
807.2000,0.000251133
807.0000,0.000276861
806.8000,0.000274831
806.6000,0.000264385
806.4000,0.000266116
806.2000,0.000272862
806.0000,0.000248745
805.8000,0.000235732
805.6000,0.000255311
805.4000,0.000252088
805.2000,0.000272324
805.0000,0.000263848
804.8000,0.000234777
804.6000,0.000242119
804.4000,0.00024594
804.2000,0.000266295
804.0000,0.000275428
803.8000,0.000288979
803.6000,0.000295605
803.4000,0.000256087
803.2000,0.00024188
803.0000,0.000262534
802.8000,0.000248088
802.6000,0.000220092
802.4000,0.000239612
802.2000,0.000262176
802.0000,0.000262773
801.8000,0.000280264
801.6000,0.00027113
801.4000,0.000260087
801.2000,0.000264862
801.0000,0.000251491
800.8000,0.000240806
800.6000,0.00023412
800.4000,0.000253401
800.2000,0.000267071
800.0000,0.000258416
799.8000,0.000249342
799.6000,0.000242955
799.4000,0.000240746
799.2000,0.000246298
799.0000,0.000225882
798.8000,0.000245581
798.6000,0.000279488
798.4000,0.000261997
798.2000,0.000264445
798.0000,0.000269757
797.8000,0.000244268
797.6000,0.000236926
797.4000,0.000255132
797.2000,0.000247551
797.0000,0.000234956
796.8000,0.000247551
796.6000,0.000252028
796.4000,0.000246059
796.2000,0.000240089
796.0000,0.000240507
795.8000,0.000253998
795.6000,0.000272623
795.4000,0.000270892
795.2000,0.0002303
795.0000,0.000189767
794.8000,0.00019908
794.6000,0.000229882
794.4000,0.000230837
794.2000,0.000237463
794.0000,0.000224867
793.8000,0.000228389
793.6000,0.000242776
793.4000,0.000255013
793.2000,0.000242597
793.0000,0.000197169
792.8000,0.000216928
792.6000,0.000292561
792.4000,0.000290113
792.2000,0.000215436
792.0000,0.000199318
791.8000,0.000203079
791.6000,0.000211436
791.4000,0.00022636
791.2000,0.000224629
791.0000,0.000243014
790.8000,0.000258953
790.6000,0.000238179
790.4000,0.000242835
790.2000,0.00025943
790.0000,0.000226897
789.8000,0.000219316
789.6000,0.000270772
789.4000,0.0002848
789.2000,0.00024594
789.0000,0.000242418
788.8000,0.000254834
788.6000,0.000239731
788.4000,0.000253938
788.2000,0.000259132
788.0000,0.000254058
787.8000,0.000244029
787.6000,0.000244746
787.4000,0.000263131
787.2000,0.000278234
787.0000,0.00026737
786.8000,0.000237463
786.6000,0.000244089
786.4000,0.000250118
786.2000,0.000249879
786.0000,0.000252745
785.8000,0.000254953
785.6000,0.000247492
785.4000,0.000223495
785.2000,0.000243492
785.0000,0.000272085
784.8000,0.000245641
784.6000,0.000235254
784.4000,0.000224987
784.2000,0.000209884
784.0000,0.000227016
783.8000,0.000241701
783.6000,0.000246298
783.4000,0.000255431
783.2000,0.000252088
783.0000,0.000219734
782.8000,0.000216988
782.6000,0.000227494
782.4000,0.000209705
782.2000,0.000242119
782.0000,0.000248327
781.8000,0.000231673
781.6000,0.000245223
781.4000,0.000235911
781.2000,0.000229225
781.0000,0.000248148
780.8000,0.000265818
780.6000,0.000259848
780.4000,0.000232986
780.2000,0.000215496
780.0000,0.000197528
779.8000,0.000202363
779.6000,0.000217465
779.4000,0.000238776
779.2000,0.000258953
779.0000,0.000227673
778.8000,0.000226778
778.6000,0.000247432
778.4000,0.000231732
778.2000,0.000231911
778.0000,0.000240746
777.8000,0.000223495
777.6000,0.000227016
777.4000,0.000233643
777.2000,0.000223196
777.0000,0.000198602
776.8000,0.000211914
776.6000,0.000226539
776.4000,0.000208869
776.2000,0.000211257
776.0000,0.000241462
775.8000,0.000252088
775.6000,0.000217227
775.4000,0.000232329
775.2000,0.000266952
775.0000,0.000229941
774.8000,0.000210183
774.6000,0.000252028
774.4000,0.000245999
774.2000,0.000229941
774.0000,0.000264206
773.8000,0.000256505
773.6000,0.000237164
773.4000,0.000271369
773.2000,0.000251252
773.0000,0.000223912
772.8000,0.000233523
772.6000,0.00024976
772.4000,0.000251133
772.2000,0.000225942
772.0000,0.00023209
771.8000,0.000228151
771.6000,0.000215018
771.4000,0.000225464
771.2000,0.00022236
771.0000,0.000207735
770.8000,0.000240209
770.6000,0.000239015
770.4000,0.000223315
770.2000,0.000264624
770.0000,0.000243492
769.8000,0.00023412
769.6000,0.000246357
769.4000,0.00022636
769.2000,0.000214839
769.0000,0.000221704
768.8000,0.000256207
768.6000,0.000246357
768.4000,0.000211257
768.2000,0.00020881
768.0000,0.000237045
767.8000,0.000231255
767.6000,0.000195438
767.4000,0.000210183
767.2000,0.000245044
767.0000,0.000261042
766.8000,0.000239493
766.6000,0.000230359
766.4000,0.00024773
766.2000,0.000246357
766.0000,0.000239075
765.8000,0.000243313
765.6000,0.000255073
765.4000,0.000240627
765.2000,0.000225047
765.0000,0.000242597
764.8000,0.000269757
764.6000,0.000276443
764.4000,0.000253759
764.2000,0.000207019
764.0000,0.000203497
763.8000,0.000217764
763.6000,0.000229882
763.4000,0.00024194
763.2000,0.000224808
763.0000,0.000207079
762.8000,0.000197289
762.6000,0.000210063
762.4000,0.000247671
762.2000,0.000258833
762.0000,0.000235732
761.8000,0.000232031
761.6000,0.000231553
761.4000,0.000237105
761.2000,0.000216152
761.0000,0.00020105
760.8000,0.000232866
760.6000,0.000263191
760.4000,0.00027119
760.2000,0.000227315
760.0000,0.000221704
759.8000,0.000226002
759.6000,0.000210183
759.4000,0.000232389
759.2000,0.000245581
759.0000,0.000234239
758.8000,0.000244686
758.6000,0.000238478
758.4000,0.000215257
758.2000,0.000217286
758.0000,0.000230897
757.8000,0.000255849
757.6000,0.000246477
757.4000,0.000235553
757.2000,0.000234419
757.0000,0.000232866
756.8000,0.000250058
756.6000,0.000244029
756.4000,0.000223733
756.2000,0.000240686
756.0000,0.000241343
755.8000,0.000226181
755.6000,0.000247432
755.4000,0.000247671
755.2000,0.000254416
755.0000,0.000241104
754.8000,0.00022821
754.6000,0.000234299
754.4000,0.000209586
754.2000,0.000239612
754.0000,0.000246119
753.8000,0.00023406
753.6000,0.000230956
753.4000,0.000233344
753.2000,0.000252088
753.0000,0.000246536
752.8000,0.000241642
752.6000,0.000215496
752.4000,0.000211257
752.2000,0.000244328
752.0000,0.000250357
751.8000,0.000232747
751.6000,0.000235374
751.4000,0.00023609
751.2000,0.00022624
751.0000,0.000195617
750.8000,0.000217048
750.6000,0.000255729
750.4000,0.000223793
750.2000,0.000223077
750.0000,0.000240806
749.8000,0.000242
749.6000,0.000246477
749.4000,0.000249521
749.2000,0.000260565
749.0000,0.000243671
748.8000,0.000223793
748.6000,0.000249461
748.4000,0.000259789
748.2000,0.000255311
748.0000,0.000251133
747.8000,0.000227136
747.6000,0.000232926
747.4000,0.000233583
747.2000,0.00024773
747.0000,0.000267191
746.8000,0.000255311
746.6000,0.000263609
746.4000,0.000272802
746.2000,0.000285278
746.0000,0.000270892
745.8000,0.000236806
745.6000,0.0002146
745.4000,0.000221346
745.2000,0.000252924
745.0000,0.000234359
744.8000,0.000218421
744.6000,0.000223853
744.4000,0.000218421
744.2000,0.000224509
744.0000,0.000207138
743.8000,0.000235672
743.6000,0.000235493
743.4000,0.00021663
743.2000,0.000206959
743.0000,0.000189887
742.8000,0.000199378
742.6000,0.000208571
742.4000,0.000217704
742.2000,0.000202482
742.0000,0.000194603
741.8000,0.000224091
741.6000,0.000260087
741.4000,0.000265758
741.2000,0.000272862
741.0000,0.000272862
740.8000,0.000244029
740.6000,0.000240627
740.4000,0.000239433
740.2000,0.000231553
740.0000,0.000236329
739.8000,0.000210123
739.6000,0.000186842
739.4000,0.00022248
739.2000,0.000226837
739.0000,0.000219853
738.8000,0.000233881
738.6000,0.00022624
738.4000,0.000243014
738.2000,0.000221166
738.0000,0.000219674
737.8000,0.000233105
737.6000,0.000202602
737.4000,0.000197647
737.2000,0.000202303
737.0000,0.000189887
736.8000,0.000189946
736.6000,0.000215615
736.4000,0.000244925
736.2000,0.000276145
736.0000,0.000266534
735.8000,0.000230897
735.6000,0.000235314
735.4000,0.000236985
735.2000,0.000226121
735.0000,0.000242895
734.8000,0.000231255
734.6000,0.000181649
734.4000,0.000187499
734.2000,0.000244925
734.0000,0.00025752
733.8000,0.000206243
733.6000,0.00016195
733.4000,0.000203497
733.2000,0.000207616
733.0000,0.000172635
732.8000,0.000199378
732.6000,0.000226658
732.4000,0.000206303
732.2000,0.000195737
732.0000,0.000203378
731.8000,0.000205288
731.6000,0.000210899
731.4000,0.000229643
731.2000,0.000218719
731.0000,0.000197229
730.8000,0.000223017
730.6000,0.000263131
730.4000,0.000274354
730.2000,0.000231792
730.0000,0.000237881
729.8000,0.000253282
729.6000,0.000231314
729.4000,0.000268564
729.2000,0.000280741
729.0000,0.000231255
728.8000,0.000210899
728.6000,0.000210481
728.4000,0.000206124
728.2000,0.00023615
728.0000,0.000254416
727.8000,0.000242656
727.6000,0.000224509
727.4000,0.000220331
727.2000,0.000257341
727.0000,0.000249342
726.8000,0.000189588
726.6000,0.00021263
726.4000,0.000272563
726.2000,0.000289695
726.0000,0.000277398
725.8000,0.00024773
725.6000,0.000242238
725.4000,0.000268802
725.2000,0.000260326
725.0000,0.000248984
724.8000,0.000262833
724.6000,0.000236209
724.4000,0.000246596
724.2000,0.000266952
724.0000,0.000235015
723.8000,0.000238955
723.6000,0.000266653
723.4000,0.000262117
723.2000,0.000251909
723.0000,0.000243194
722.8000,0.000253998
722.6000,0.000260803
722.4000,0.000261878
722.2000,0.000260923
722.0000,0.00027322
721.8000,0.000257878
721.6000,0.000242
721.4000,0.000253043
721.2000,0.000258117
721.0000,0.000280084
720.8000,0.000277279
720.6000,0.000273399
720.4000,0.000288143
720.2000,0.000296978
720.0000,0.000292083
719.8000,0.000265758
719.6000,0.000277995
719.4000,0.00025764
719.2000,0.000215854
719.0000,0.000231613
718.8000,0.000240507
718.6000,0.000252267
718.4000,0.000264922
718.2000,0.000281577
718.0000,0.000265161
717.8000,0.000258714
717.6000,0.000290531
717.4000,0.000271369
717.2000,0.00026152
717.0000,0.000279189
716.8000,0.000249282
716.6000,0.000246119
716.4000,0.000276204
716.2000,0.000273996
716.0000,0.00026349
715.8000,0.000260445
715.6000,0.000295008
715.4000,0.00030623
715.2000,0.000285815
715.0000,0.000289218
714.8000,0.000270593
714.6000,0.00023603
714.4000,0.000239791
714.2000,0.000259968
714.0000,0.000262355
713.8000,0.000260445
713.6000,0.000269638
713.4000,0.00028092
713.2000,0.000275787
713.0000,0.000255192
712.8000,0.000261102
712.6000,0.000268205
712.4000,0.000266713
712.2000,0.000256147
712.0000,0.000277876
711.8000,0.000309991
711.6000,0.00025555
711.4000,0.000227076
711.2000,0.000270653
711.0000,0.000270713
710.8000,0.000263788
710.6000,0.000298052
710.4000,0.000287248
710.2000,0.000274354
710.0000,0.000279189
709.8000,0.000286293
709.6000,0.000280323
709.4000,0.000271429
709.2000,0.000265877
709.0000,0.000268384
708.8000,0.00028677
708.6000,0.000286293
708.4000,0.000277816
708.2000,0.000244746
708.0000,0.000228688
707.8000,0.000262176
707.6000,0.000279189
707.4000,0.000266116
707.2000,0.00027895
707.0000,0.00029847
706.8000,0.000296859
706.6000,0.00026928
706.4000,0.000287904
706.2000,0.000286949
706.0000,0.000274354
705.8000,0.000272742
705.6000,0.000241045
705.4000,0.000268205
705.2000,0.000261042
705.0000,0.000268146
704.8000,0.000309514
704.6000,0.000303067
704.4000,0.000276622
704.2000,0.000261758
704.0000,0.000265459
703.8000,0.000268205
703.6000,0.000275727
703.4000,0.00025943
703.2000,0.000263788
703.0000,0.000273697
702.8000,0.000278055
702.6000,0.000283786
702.4000,0.000252088
702.2000,0.000252983
702.0000,0.000264027
701.8000,0.000276921
701.6000,0.000277816
701.4000,0.000261938
701.2000,0.000277816
701.0000,0.0002654
700.8000,0.000260147
700.6000,0.000307842
700.4000,0.000317751
700.2000,0.000276921
700.0000,0.000248387
699.8000,0.000258953
699.6000,0.000277995
699.4000,0.000274115
699.2000,0.000262893
699.0000,0.00024773
698.8000,0.000213287
698.6000,0.000224271
698.4000,0.000240388
698.2000,0.000249342
698.0000,0.000270474
697.8000,0.000274593
697.6000,0.000280562
697.4000,0.000248208
697.2000,0.000248208
697.0000,0.000265877
696.8000,0.000246119
696.6000,0.00024194
696.4000,0.000265459
696.2000,0.000278115
696.0000,0.00026737
695.8000,0.00028295
695.6000,0.000322229
695.4000,0.000320497
695.2000,0.000281219
695.0000,0.000262833
694.8000,0.000301933
694.6000,0.000331541
694.4000,0.000312319
694.2000,0.000281935
694.0000,0.000254356
693.8000,0.000255968
693.6000,0.000268026
693.4000,0.000261102
693.2000,0.000274055
693.0000,0.000299784
692.8000,0.000280264
692.6000,0.00025746
692.4000,0.00025943
692.2000,0.000236269
692.0000,0.000231673
691.8000,0.000259968
691.6000,0.000281338
691.4000,0.000269638
691.2000,0.000250297
691.0000,0.000262952
690.8000,0.00026534
690.6000,0.000253998
690.4000,0.000227076
690.2000,0.000230538
690.0000,0.000255431
689.8000,0.000275428
689.6000,0.000242537
689.4000,0.000211018
689.2000,0.000236329
689.0000,0.000280443
688.8000,0.000299784
688.6000,0.000279547
688.4000,0.000241104
688.2000,0.000248984
688.0000,0.00026737
687.8000,0.000268325
687.6000,0.000285099
687.4000,0.000287367
687.2000,0.000271489
687.0000,0.000243432
686.8000,0.000274951
686.6000,0.000285755
686.4000,0.000238836
686.2000,0.000212153
686.0000,0.000224091
685.8000,0.000260266
685.6000,0.000280502
685.4000,0.00027907
685.2000,0.000272623
685.0000,0.000247372
684.8000,0.000253103
684.6000,0.000263669
684.4000,0.000266892
684.2000,0.000271727
684.0000,0.000269937
683.8000,0.000254237
683.6000,0.000242716
683.4000,0.000240686
683.2000,0.000263728
683.0000,0.000272145
682.8000,0.000258177
682.6000,0.000273817
682.4000,0.000295903
682.2000,0.000310409
682.0000,0.000284621
681.8000,0.000283248
681.6000,0.000268504
681.4000,0.000250357
681.2000,0.000293038
681.0000,0.000309633
680.8000,0.000279428
680.6000,0.000290292
680.4000,0.000313812
680.2000,0.000287606
680.0000,0.0002614
679.8000,0.000281696
679.6000,0.000299425
679.4000,0.000259192
679.2000,0.000266355
679.0000,0.000291068
678.8000,0.000284442
678.6000,0.000285338
678.4000,0.000277816
678.2000,0.000276204
678.0000,0.000267907
677.8000,0.000266295
677.6000,0.000288919
677.4000,0.000317931
677.2000,0.000302291
677.0000,0.000291009
676.8000,0.000309693
676.6000,0.000292381
676.4000,0.000289874
676.2000,0.000313394
676.0000,0.00029262
675.8000,0.000253401
675.6000,0.000267011
675.4000,0.000270056
675.2000,0.00024576
675.0000,0.000266355
674.8000,0.000269578
674.6000,0.000255491
674.4000,0.000258714
674.2000,0.00029077
674.0000,0.000309872
673.8000,0.000283606
673.6000,0.000272324
673.4000,0.000275309
673.2000,0.000297933
673.0000,0.000299963
672.8000,0.00027507
672.6000,0.000281338
672.4000,0.00027513
672.2000,0.000276264
672.0000,0.000294471
671.8000,0.000307365
671.6000,0.000291486
671.4000,0.000279905
671.2000,0.000319602
671.0000,0.000302529
670.8000,0.000285935
670.6000,0.00030044
670.4000,0.000315244
670.2000,0.000326049
670.0000,0.000267728
669.8000,0.000229404
669.6000,0.000254356
669.4000,0.000271309
669.2000,0.000272026
669.0000,0.000310588
668.8000,0.000345032
668.6000,0.000308081
668.4000,0.000273041
668.2000,0.000242656
668.0000,0.000235254
667.8000,0.000235971
667.6000,0.000253521
667.4000,0.000289337
667.2000,0.00030438
667.0000,0.000332556
666.8000,0.000317155
666.6000,0.000290829
666.4000,0.000290471
666.2000,0.00028677
666.0000,0.000285158
665.8000,0.000272921
665.6000,0.000292561
665.4000,0.000293993
665.2000,0.000266176
665.0000,0.000300858
664.8000,0.000322825
664.6000,0.000279189
664.4000,0.000263669
664.2000,0.000277995
664.0000,0.000262714
663.8000,0.000256326
663.6000,0.000277339
663.4000,0.000293934
663.2000,0.000303902
663.0000,0.000311066
662.8000,0.000268325
662.6000,0.000214003
662.4000,0.000232986
662.2000,0.000260206
662.0000,0.000262296
661.8000,0.000266713
661.6000,0.000268086
661.4000,0.000279129
661.2000,0.000272682
661.0000,0.000256744
660.8000,0.000246357
660.6000,0.000205228
660.4000,0.000201288
660.2000,0.000256267
660.0000,0.000268504
659.8000,0.000254894
659.6000,0.000287248
659.4000,0.000279129
659.2000,0.000247969
659.0000,0.000260445
658.8000,0.000260684
658.6000,0.000258177
658.4000,0.000274354
658.2000,0.000270414
658.0000,0.000257699
657.8000,0.000276622
657.6000,0.000238478
657.4000,0.000220211
657.2000,0.000251909
657.0000,0.000255132
656.8000,0.000268325
656.6000,0.000261639
656.4000,0.000247312
656.2000,0.000244805
656.0000,0.000249939
655.8000,0.000249282
655.6000,0.000217883
655.4000,0.000221166
655.2000,0.000256804
655.0000,0.000252924
654.8000,0.000248566
654.6000,0.00026152
654.4000,0.000247253
654.2000,0.000257699
654.0000,0.000285517
653.8000,0.000279726
653.6000,0.000261281
653.4000,0.000239254
653.2000,0.000252625
653.0000,0.000258475
652.8000,0.00025364
652.6000,0.000268444
652.4000,0.000265221
652.2000,0.000238358
652.0000,0.000247611
651.8000,0.000269638
651.6000,0.000257819
651.4000,0.000253401
651.2000,0.000272623
651.0000,0.000289755
650.8000,0.000239672
650.6000,0.00022445
650.4000,0.000254774
650.2000,0.000274473
650.0000,0.000278413
649.8000,0.000247611
649.6000,0.000236687
649.4000,0.000251969
649.2000,0.000263788
649.0000,0.000264027
648.8000,0.0002654
648.6000,0.000255013
648.4000,0.000258953
648.2000,0.00025758
648.0000,0.00026146
647.8000,0.000266355
647.6000,0.000231852
647.4000,0.000228807
647.2000,0.000228389
647.0000,0.000230718
646.8000,0.000264504
646.6000,0.000277935
646.4000,0.000267011
646.2000,0.000242955
646.0000,0.000225106
645.8000,0.000218421
645.6000,0.000284024
645.4000,0.000300201
645.2000,0.000225405
645.0000,0.000213347
644.8000,0.000222838
644.6000,0.000216809
644.4000,0.000188394
644.2000,0.000199557
644.0000,0.000221644
643.8000,0.000243432
643.6000,0.000254177
643.4000,0.000233105
643.2000,0.000241104
643.0000,0.000255729
642.8000,0.000262714
642.6000,0.000248805
642.4000,0.000256028
642.2000,0.00029268
642.0000,0.000261579
641.8000,0.000213764
641.6000,0.000227016
641.4000,0.000262714
641.2000,0.000275249
641.0000,0.000276443
640.8000,0.000276383
640.6000,0.000260147
640.4000,0.000232329
640.2000,0.00021263
640.0000,0.000225644
639.8000,0.000208869
639.6000,0.00024391
639.4000,0.000281577
639.2000,0.000269041
639.0000,0.000274115
638.8000,0.00027901
638.6000,0.000284741
638.4000,0.000294113
638.2000,0.000290113
638.0000,0.000281995
637.8000,0.000303544
637.6000,0.000283368
637.4000,0.000246298
637.2000,0.000271787
637.0000,0.000278234
636.8000,0.000277577
636.6000,0.000277398
636.4000,0.000233463
636.2000,0.000220987
636.0000,0.000247909
635.8000,0.000248148
635.6000,0.000245999
635.4000,0.000245104
635.2000,0.000266653
635.0000,0.00028289
634.8000,0.00025949
634.6000,0.00021657
634.4000,0.000200751
634.2000,0.000258654
634.0000,0.000265161
633.8000,0.00026337
633.6000,0.000266176
633.4000,0.000275011
633.2000,0.000279308
633.0000,0.000247253
632.8000,0.000266773
632.6000,0.000255013
632.4000,0.000282711
632.2000,0.00031811
632.0000,0.000294411
631.8000,0.000288203
631.6000,0.000293516
631.4000,0.000275906
631.2000,0.000271906
631.0000,0.000253759
630.8000,0.000212332
630.6000,0.000229345
630.4000,0.000267011
630.2000,0.000281696
630.0000,0.000247253
629.8000,0.000248208
629.6000,0.000257043
629.4000,0.000235433
629.2000,0.000213287
629.0000,0.000231434
628.8000,0.000277995
628.6000,0.000295903
628.4000,0.000280741
628.2000,0.000233344
628.0000,0.000225644
627.8000,0.000218838
627.6000,0.000245641
627.4000,0.000266355
627.2000,0.000264206
627.0000,0.000284024
626.8000,0.000249581
626.6000,0.000233762
626.4000,0.000231494
626.2000,0.000226778
626.0000,0.000256565
625.8000,0.000266355
625.6000,0.00024194
625.4000,0.000234478
625.2000,0.000225405
625.0000,0.000227016
624.8000,0.000241701
624.6000,0.000209825
624.4000,0.00020684
624.2000,0.000239015
624.0000,0.000239015
623.8000,0.000202721
623.6000,0.000204392
623.4000,0.000246417
623.2000,0.000227852
623.0000,0.000220868
622.8000,0.000223733
622.6000,0.000231911
622.4000,0.000236568
622.2000,0.000204691
622.0000,0.000210481
621.8000,0.000215854
621.6000,0.000240328
621.4000,0.000276921
621.2000,0.000240328
621.0000,0.000201885
620.8000,0.000220808
620.6000,0.000246895
620.4000,0.000253222
620.2000,0.000235911
620.0000,0.000225882
619.8000,0.000252267
619.6000,0.000276503
619.4000,0.000252745
619.2000,0.000207914
619.0000,0.00020093
618.8000,0.000254356
618.6000,0.000254774
618.4000,0.000203497
618.2000,0.00021848
618.0000,0.000239194
617.8000,0.000234777
617.6000,0.00021472
617.4000,0.000239433
617.2000,0.000248984
617.0000,0.000233583
616.8000,0.000257162
616.6000,0.000230598
616.4000,0.000224569
616.2000,0.000253103
616.0000,0.000237821
615.8000,0.00023412
615.6000,0.000239254
615.4000,0.000253282
615.2000,0.000272205
615.0000,0.000231195
614.8000,0.000249223
614.6000,0.000288203
614.4000,0.000281457
614.2000,0.000306947
614.0000,0.000266594
613.8000,0.000242059
613.6000,0.000240627
613.4000,0.000213526
613.2000,0.000229464
613.0000,0.000235971
612.8000,0.000225703
612.6000,0.000244387
612.4000,0.000248327
612.2000,0.000208869
612.0000,0.000212869
611.8000,0.00023018
611.6000,0.00020099
611.4000,0.000204452
611.2000,0.000230359
611.0000,0.000235314
610.8000,0.000243194
610.6000,0.000240925
610.4000,0.000240865
610.2000,0.000228748
610.0000,0.000256565
609.8000,0.000259072
609.6000,0.000217048
609.4000,0.000217286
609.2000,0.00021848
609.0000,0.000200453
608.8000,0.000199318
608.6000,0.000236687
608.4000,0.000245044
608.2000,0.000235792
608.0000,0.000231076
607.8000,0.000229643
607.6000,0.000224509
607.4000,0.000216391
607.2000,0.000229225
607.0000,0.000239493
606.8000,0.000254894
606.6000,0.000243432
606.4000,0.000238358
606.2000,0.0002731
606.0000,0.000264266
605.8000,0.000250178
605.6000,0.000256505
605.4000,0.000258177
605.2000,0.000248387
605.0000,0.0002537
604.8000,0.000240627
604.6000,0.000225703
604.4000,0.000240925
604.2000,0.000226181
604.0000,0.000201647
603.8000,0.000181112
603.6000,0.000196752
603.4000,0.000240985
603.2000,0.000260087
603.0000,0.00023812
602.8000,0.000230419
602.6000,0.000251491
602.4000,0.000237224
602.2000,0.00024385
602.0000,0.000282233
601.8000,0.00028092
601.6000,0.000235493
601.4000,0.000199736
601.2000,0.000201109
601.0000,0.000198542
600.8000,0.000202542
600.6000,0.000225703
600.4000,0.00023412
600.2000,0.000229703
600.0000,0.000253342
599.8000,0.000255431
599.6000,0.000228509
599.4000,0.000226181
599.2000,0.000204631
599.0000,0.00019902
598.8000,0.00022642
598.6000,0.000235792
598.4000,0.000234657
598.2000,0.000197349
598.0000,0.000166725
597.8000,0.000210242
597.6000,0.000251193
597.4000,0.000206482
597.2000,0.000166248
597.0000,0.00021657
596.8000,0.000205765
596.6000,0.000196692
596.4000,0.000230598
596.2000,0.000204213
596.0000,0.000207676
595.8000,0.000211198
595.6000,0.000182425
595.4000,0.000166725
595.2000,0.000206004
595.0000,0.000243731
594.8000,0.00022057
594.6000,0.000210959
594.4000,0.00024773
594.2000,0.000250775
594.0000,0.000202064
593.8000,0.000198781
593.6000,0.00021269
593.4000,0.000218182
593.2000,0.000204572
593.0000,0.000205706
592.8000,0.000232747
592.6000,0.000245522
592.4000,0.000225405
592.2000,0.000194244
592.0000,0.000204392
591.8000,0.000232329
591.6000,0.000243134
591.4000,0.000248088
591.2000,0.000230479
591.0000,0.000221286
590.8000,0.000229524
590.6000,0.000231195
590.4000,0.000208631
590.2000,0.00019126
590.0000,0.000195916
589.8000,0.000198542
589.6000,0.000198065
589.4000,0.000207676
589.2000,0.000230419
589.0000,0.000235851
588.8000,0.000240328
588.6000,0.000228569
588.4000,0.000221047
588.2000,0.000235612
588.0000,0.000228807
587.8000,0.000254356
587.6000,0.000248506
587.4000,0.000186305
587.2000,0.000171083
587.0000,0.000215018
586.8000,0.000217048
586.6000,0.000209108
586.4000,0.000218003
586.2000,0.00021263
586.0000,0.000234478
585.8000,0.000243611
585.6000,0.000237045
585.4000,0.000176217
585.2000,0.000176456
585.0000,0.000215197
584.8000,0.000238478
584.6000,0.000260027
584.4000,0.000233344
584.2000,0.00023806
584.0000,0.000279905
583.8000,0.000262117
583.6000,0.000248088
583.4000,0.000249461
583.2000,0.000242477
583.0000,0.000215316
582.8000,0.000212332
582.6000,0.000248327
582.4000,0.000210004
582.2000,0.00022248
582.0000,0.00027519
581.8000,0.000236806
581.6000,0.000202482
581.4000,0.000229524
581.2000,0.000240328
581.0000,0.000224569
580.8000,0.000233344
580.6000,0.000228628
580.4000,0.000211914
580.2000,0.000238657
580.0000,0.000267191
579.8000,0.000258953
579.6000,0.000250476
579.4000,0.000225345
579.2000,0.000203676
579.0000,0.000195379
578.8000,0.000221286
578.6000,0.000237523
578.4000,0.000198244
578.2000,0.00021472
578.0000,0.000216152
577.8000,0.000191678
577.6000,0.000222957
577.4000,0.00025161
577.2000,0.000229106
577.0000,0.000198721
576.8000,0.000257043
576.6000,0.00027704
576.4000,0.000239194
576.2000,0.000246656
576.0000,0.000266952
575.8000,0.000279249
575.6000,0.000269817
575.4000,0.000386459
575.2000,0.000373804
575.0000,0.000227255
574.8000,0.000231613
574.6000,0.00026934
574.4000,0.000256864
574.2000,0.000246596
574.0000,0.000285039
573.8000,0.000258236
573.6000,0.000232389
573.4000,0.000278353
573.2000,0.000252207
573.0000,0.00023406
572.8000,0.000262355
572.6000,0.000260445
572.4000,0.000259968
572.2000,0.000270116
572.0000,0.000272026
571.8000,0.000271071
571.6000,0.000271309
571.4000,0.000246775
571.2000,0.000266594
571.0000,0.000276742
570.8000,0.000259968
570.6000,0.000270116
570.4000,0.00025764
570.2000,0.000272444
570.0000,0.000284741
569.8000,0.000268743
569.6000,0.000248447
569.4000,0.000238537
569.2000,0.000281457
569.0000,0.000258117
568.8000,0.000230061
568.6000,0.00026331
568.4000,0.000291546
568.2000,0.000292322
568.0000,0.000284741
567.8000,0.000285218
567.6000,0.000298411
567.4000,0.000296978
567.2000,0.000272682
567.0000,0.000250596
566.8000,0.000219017
566.6000,0.000214003
566.4000,0.000240089
566.2000,0.000285218
566.0000,0.000277159
565.8000,0.000263848
565.6000,0.000279129
565.4000,0.000259609
565.2000,0.000232866
565.0000,0.000265698
564.8000,0.0002848
564.6000,0.000242358
564.4000,0.000229165
564.2000,0.000265997
564.0000,0.000268564
563.8000,0.000255132
563.6000,0.000268384
563.4000,0.000248506
563.2000,0.000244984
563.0000,0.000274533
562.8000,0.00027519
562.6000,0.000266952
562.4000,0.000252745
562.2000,0.000252804
562.0000,0.000262714
561.8000,0.000243791
561.6000,0.000223495
561.4000,0.000268146
561.2000,0.000289636
561.0000,0.000292919
560.8000,0.000290352
560.6000,0.000266474
560.4000,0.000284442
560.2000,0.000285636
560.0000,0.000322945
559.8000,0.000318229
559.6000,0.000291247
559.4000,0.000288919
559.2000,0.000291785
559.0000,0.000272145
558.8000,0.000262236
558.6000,0.000279965
558.4000,0.000259192
558.2000,0.000305813
558.0000,0.000330466
557.8000,0.00031226
557.6000,0.000308738
557.4000,0.000285636
557.2000,0.000310528
557.0000,0.000363776
556.8000,0.000348195
556.6000,0.000310887
556.4000,0.000300321
556.2000,0.000291605
556.0000,0.000305096
555.8000,0.000314647
555.6000,0.000299008
555.4000,0.000296441
555.2000,0.000317931
555.0000,0.000313036
554.8000,0.000321751
554.6000,0.000297635
554.4000,0.000298052
554.2000,0.000355359
554.0000,0.000345688
553.8000,0.000316319
553.6000,0.000344256
553.4000,0.000347121
553.2000,0.000320318
553.0000,0.000313036
552.8000,0.000296441
552.6000,0.000321512
552.4000,0.000357269
552.2000,0.000327183
552.0000,0.000287666
551.8000,0.000310648
551.6000,0.000338525
551.4000,0.000327243
551.2000,0.000306887
551.0000,0.000357746
550.8000,0.000397801
550.6000,0.000359478
550.4000,0.00031799
550.2000,0.000327302
550.0000,0.000350822
549.8000,0.000357687
549.6000,0.000345211
549.4000,0.000338883
549.2000,0.000367417
549.0000,0.000355597
548.8000,0.000366581
548.6000,0.000379177
548.4000,0.000359776
548.2000,0.000353687
548.0000,0.000346166
547.8000,0.000341928
547.6000,0.00034145
547.4000,0.000381266
547.2000,0.000386101
547.0000,0.000386758
546.8000,0.000396727
546.6000,0.000402696
546.4000,0.000399831
546.2000,0.000382997
546.0000,0.000397682
545.8000,0.000418634
545.6000,0.00042926
545.4000,0.000431409
545.2000,0.000404069
545.0000,0.000390339
544.8000,0.000377266
544.6000,0.000368253
544.4000,0.000407412
544.2000,0.000401263
544.0000,0.00039601
543.8000,0.000433558
543.6000,0.000422813
543.4000,0.000402457
543.2000,0.000427887
543.0000,0.00043511
542.8000,0.000412187
542.6000,0.000424604
542.4000,0.000494864
542.2000,0.000506623
542.0000,0.000482985
541.8000,0.000474926
541.6000,0.000470688
541.4000,0.000491879
541.2000,0.000514025
541.0000,0.00051504
540.8000,0.000517906
540.6000,0.000539336
540.4000,0.000563213
540.2000,0.00056781
540.0000,0.000536709
539.8000,0.000526322
539.6000,0.000546977
539.4000,0.000563154
539.2000,0.000563154
539.0000,0.000547932
538.8000,0.000542261
538.6000,0.000545783
538.4000,0.000584763
538.2000,0.000629772
538.0000,0.000586912
537.8000,0.000588822
537.6000,0.000621893
537.4000,0.000612342
537.2000,0.000625952
537.0000,0.000640517
536.8000,0.000653889
536.6000,0.000658963
536.4000,0.000697346
536.2000,0.000672931
536.0000,0.000645114
535.8000,0.000696868
535.6000,0.000708568
535.4000,0.000718179
535.2000,0.000697286
535.0000,0.000684989
534.8000,0.000721462
534.6000,0.000753876
534.4000,0.00074731
534.2000,0.000759487
534.0000,0.000784081
533.8000,0.000802467
533.6000,0.000840433
533.4000,0.000832254
533.2000,0.000831837
533.0000,0.00086831
532.8000,0.000894575
532.6000,0.000877025
532.4000,0.000880666
532.2000,0.000910275
532.0000,0.000939167
531.8000,0.000952777
531.6000,0.000939704
531.4000,0.000921139
531.2000,0.000943882
531.0000,0.000979758
530.8000,0.00101898
530.6000,0.00102041
530.4000,0.00103002
530.2000,0.00105611
530.0000,0.00104327
529.8000,0.00107581
529.6000,0.00108661
529.4000,0.00107718
529.2000,0.001109
529.0000,0.00110983
528.8000,0.00112034
528.6000,0.00115383
528.4000,0.00119639
528.2000,0.00120672
528.0000,0.00119657
527.8000,0.00123173
527.6000,0.00126492
527.4000,0.00130205
527.2000,0.00133052
527.0000,0.0013307
526.8000,0.00135159
526.6000,0.00137332
526.4000,0.00137356
526.2000,0.0014006
526.0000,0.0014314
525.8000,0.00142484
525.6000,0.00142866
525.4000,0.00143313
525.2000,0.00145027
525.0000,0.00149868
524.8000,0.00154655
524.6000,0.0015804
524.4000,0.00160434
524.2000,0.00166278
524.0000,0.00168134
523.8000,0.00169674
523.6000,0.0017248
523.4000,0.0017682
523.2000,0.00179148
523.0000,0.0017916
522.8000,0.00185022
522.6000,0.00185058
522.4000,0.00186126
522.2000,0.00190585
522.0000,0.00196513
521.8000,0.00199259
521.6000,0.00196614
521.4000,0.00205777
521.2000,0.00212493
521.0000,0.0021038
520.8000,0.00216845
520.6000,0.00225638
520.4000,0.00221931
520.2000,0.00220396
520.0000,0.00230067
519.8000,0.00232789
519.6000,0.00234042
519.4000,0.00238042
519.2000,0.0024006
519.0000,0.00243564
518.8000,0.0024822
518.6000,0.00255413
518.4000,0.00255992
518.2000,0.00256887
518.0000,0.00263209
517.8000,0.00268414
517.6000,0.00275416
517.4000,0.00282448
517.2000,0.00284156
517.0000,0.00286508
516.8000,0.00294214
516.6000,0.00298691
516.4000,0.0030795
516.2000,0.0031448
516.0000,0.00310224
515.8000,0.00315674
515.6000,0.00320742
515.4000,0.00323345
515.2000,0.00328067
515.0000,0.00329589
514.8000,0.00335516
514.6000,0.00341856
514.4000,0.00348339
514.2000,0.00353926
514.0000,0.00355753
513.8000,0.00363602
513.6000,0.00374085
513.4000,0.00378359
513.2000,0.00380096
513.0000,0.0038551
512.8000,0.00389868
512.6000,0.00394518
512.4000,0.00401365
512.2000,0.00405078
512.0000,0.00411704
511.8000,0.00416068
511.6000,0.00420527
511.4000,0.00426878
511.2000,0.00432197
511.0000,0.00439742
510.8000,0.00448786
510.6000,0.00456468
510.4000,0.00464891
510.2000,0.00469721
510.0000,0.00472431
509.8000,0.00480585
509.6000,0.00486698
509.4000,0.0049019
509.2000,0.00500744
509.0000,0.00503513
508.8000,0.00502869
508.6000,0.00507334
508.4000,0.00517631
508.2000,0.00532035
508.0000,0.0053505
507.8000,0.00539181
507.6000,0.00546917
507.4000,0.00559781
507.2000,0.00566413
507.0000,0.00572364
506.8000,0.00575958
506.6000,0.00582393
506.4000,0.00597239
506.2000,0.00606539
506.0000,0.0061024
505.8000,0.0061698
505.6000,0.0062634
505.4000,0.00628984
505.2000,0.00634464
505.0000,0.00640977
504.8000,0.00649609
504.6000,0.00664413
504.4000,0.00671731
504.2000,0.0067659
504.0000,0.00682816
503.8000,0.00682858
503.6000,0.00691717
503.4000,0.00704503
503.2000,0.007168
503.0000,0.00724966
502.8000,0.00728608
502.6000,0.0073398
502.4000,0.00745316
502.2000,0.0075938
502.0000,0.00763773
501.8000,0.00769391
501.6000,0.00780303
501.4000,0.00787956
501.2000,0.00794486
501.0000,0.00798348
500.8000,0.00809601
500.6000,0.00821444
500.4000,0.00830899
500.2000,0.00836558
500.0000,0.00850151
499.8000,0.00862651
499.6000,0.00864716
499.4000,0.00866507
499.2000,0.00865128
499.0000,0.00875133
498.8000,0.00893268
498.6000,0.00907009
498.4000,0.00923222
498.2000,0.00922912
498.0000,0.00926022
497.8000,0.00936158
497.6000,0.00943817
497.4000,0.0095101
497.2000,0.00961647
497.0000,0.00968608
496.8000,0.00975837
496.6000,0.00982355
496.4000,0.00983137
496.2000,0.0099119
496.0000,0.0100549
495.8000,0.0102206
495.6000,0.0102707
495.4000,0.010341
495.2000,0.0104904
495.0000,0.0105382
494.8000,0.0106648
494.6000,0.0106963
494.4000,0.0106529
494.2000,0.0107439
494.0000,0.0108656
493.8000,0.0109895
493.6000,0.0111317
493.4000,0.0112323
493.2000,0.0112516
493.0000,0.0113182
492.8000,0.0114262
492.6000,0.0114891
492.4000,0.0115895
492.2000,0.01176
492.0000,0.011847
491.8000,0.0117915
491.6000,0.0118421
491.4000,0.0120528
491.2000,0.0121356
491.0000,0.0122038
490.8000,0.0122299
490.6000,0.012229
490.4000,0.012342
490.2000,0.0124193
490.0000,0.0124558
489.8000,0.0125713
489.6000,0.0127105
489.4000,0.012755
489.2000,0.0127885
489.0000,0.012901
488.8000,0.0130038
488.6000,0.0130156
488.4000,0.0130715
488.2000,0.0131474
488.0000,0.0132003
487.8000,0.0133168
487.6000,0.0133953
487.4000,0.0135306
487.2000,0.0135912
487.0000,0.0135782
486.8000,0.0136718
486.6000,0.0137887
486.4000,0.0138316
486.2000,0.0138798
486.0000,0.0139903
485.8000,0.0140091
485.6000,0.0140465
485.4000,0.0142018
485.2000,0.0142767
485.0000,0.0142585
484.8000,0.0143112
484.6000,0.014391
484.4000,0.0145028
484.2000,0.0144878
484.0000,0.0144912
483.8000,0.0146243
483.6000,0.0146811
483.4000,0.0146853
483.2000,0.0147669
483.0000,0.0148487
482.8000,0.0149067
482.6000,0.0149974
482.4000,0.0150041
482.2000,0.0149855
482.0000,0.0150973
481.8000,0.015265
481.6000,0.0152934
481.4000,0.015295
481.2000,0.0154438
481.0000,0.0155771
480.8000,0.015591
480.6000,0.0156429
480.4000,0.0157007
480.2000,0.0157423
480.0000,0.015864
479.8000,0.0159314
479.6000,0.0159378
479.4000,0.0160042
479.2000,0.0160994
479.0000,0.0161395
478.8000,0.016203
478.6000,0.0163112
478.4000,0.0163559
478.2000,0.0164649
478.0000,0.0165234
477.8000,0.0165786
477.6000,0.0166058
477.4000,0.0166414
477.2000,0.0167912
477.0000,0.0167879
476.8000,0.0167964
476.6000,0.0169882
476.4000,0.0171443
476.2000,0.0171728
476.0000,0.0171757
475.8000,0.0172105
475.6000,0.0173465
475.4000,0.0175037
475.2000,0.0176391
475.0000,0.0176517
474.8000,0.0175912
474.6000,0.0176591
474.4000,0.017829
474.2000,0.0179539
474.0000,0.0179997
473.8000,0.0180729
473.6000,0.0180909
473.4000,0.0181642
473.2000,0.0182276
473.0000,0.0182292
472.8000,0.0182877
472.6000,0.0184034
472.4000,0.0185409
472.2000,0.0186745
472.0000,0.0186303
471.8000,0.0187118
471.6000,0.018891
471.4000,0.0188843
471.2000,0.0189144
471.0000,0.018932
470.8000,0.0190632
470.6000,0.019141
470.4000,0.019073
470.2000,0.0191569
470.0000,0.0193125
469.8000,0.0193298
469.6000,0.0193034
469.4000,0.0193775
469.2000,0.0194675
469.0000,0.0194997
468.8000,0.0194566
468.6000,0.0194896
468.4000,0.0196196
468.2000,0.0195992
468.0000,0.0194823
467.8000,0.0194677
467.6000,0.0194937
467.4000,0.0195599
467.2000,0.0196189
467.0000,0.0195574
466.8000,0.0195499
466.6000,0.0196096
466.4000,0.01957
466.2000,0.0195628
466.0000,0.0196557
465.8000,0.0195697
465.6000,0.0194937
465.4000,0.0195994
465.2000,0.0195751
465.0000,0.0194963
464.8000,0.0195241
464.6000,0.0193933
464.4000,0.0193695
464.2000,0.0194944
464.0000,0.0195036
463.8000,0.0195136
463.6000,0.0194876
463.4000,0.0193683
463.2000,0.0193121
463.0000,0.0194054
462.8000,0.0194357
462.6000,0.019391
462.4000,0.0194533
462.2000,0.0195179
462.0000,0.0194737
461.8000,0.0194819
461.6000,0.019548
461.4000,0.019541
461.2000,0.019556
461.0000,0.0196613
460.8000,0.0196392
460.6000,0.0195602
460.4000,0.0196706
460.2000,0.0198323
460.0000,0.0198903
459.8000,0.0198578
459.6000,0.0197772
459.4000,0.0197402
459.2000,0.0197668
459.0000,0.019937
458.8000,0.0200777
458.6000,0.020145
458.4000,0.0201846
458.2000,0.0201109
458.0000,0.0201818
457.8000,0.0203673
457.6000,0.0204964
457.4000,0.0205991
457.2000,0.0205979
457.0000,0.0206235
456.8000,0.0205967
456.6000,0.0205637
456.4000,0.0207545
456.2000,0.0209497
456.0000,0.020995
455.8000,0.0209829
455.6000,0.0211073
455.4000,0.0212234
455.2000,0.0212797
455.0000,0.0213645
454.8000,0.0214883
454.6000,0.0215506
454.4000,0.0215801
454.2000,0.0216779
454.0000,0.0217212
453.8000,0.0217668
453.6000,0.0219119
453.4000,0.0220919
453.2000,0.0221834
453.0000,0.0221741
452.8000,0.0221473
452.6000,0.0222772
452.4000,0.0223633
452.2000,0.0223133
452.0000,0.0223822
451.8000,0.0224592
451.6000,0.0225955
451.4000,0.0228502
451.2000,0.0229348
451.0000,0.0228765
450.8000,0.0229557
450.6000,0.0231726
450.4000,0.0233731
450.2000,0.0232762
450.0000,0.0231508
449.8000,0.0233195
449.6000,0.0235767
449.4000,0.0237314
449.2000,0.0237511
449.0000,0.0237973
448.8000,0.0238727
448.6000,0.0239642
448.4000,0.024159
448.2000,0.0242323
448.0000,0.0242344
447.8000,0.0242371
447.6000,0.0243013
447.4000,0.024519
447.2000,0.0246492
447.0000,0.0246207
446.8000,0.0248821
446.6000,0.0252101
446.4000,0.0252548
446.2000,0.0251653
446.0000,0.025143
445.8000,0.0253329
445.6000,0.0254569
445.4000,0.0254764
445.2000,0.0257022
445.0000,0.0258627
444.8000,0.0258118
444.6000,0.0259054
444.4000,0.0260803
444.2000,0.0263122
444.0000,0.0263578
443.8000,0.0265299
443.6000,0.0267906
443.4000,0.0269551
443.2000,0.0270745
443.0000,0.0271795
442.8000,0.0274442
442.6000,0.0274413
442.4000,0.0276069
442.2000,0.0278991
442.0000,0.0279249
441.8000,0.0280669
441.6000,0.0282875
441.4000,0.028443
441.2000,0.0286671
441.0000,0.0288428
440.8000,0.0289628
440.6000,0.0292308
440.4000,0.0294735
440.2000,0.0296723
440.0000,0.0300293
439.8000,0.0301961
439.6000,0.0302029
439.4000,0.0304432
439.2000,0.0306325
439.0000,0.0307816
438.8000,0.0310161
438.6000,0.0312804
438.4000,0.0314871
438.2000,0.0317545
438.0000,0.032034
437.8000,0.0320511
437.6000,0.0321725
437.4000,0.0325445
437.2000,0.0326072
437.0000,0.032756
436.8000,0.0330601
436.6000,0.0333857
436.4000,0.0336485
436.2000,0.0337663
436.0000,0.0339114
435.8000,0.0342143
435.6000,0.0345668
435.4000,0.0346898
435.2000,0.0348275
435.0000,0.0351228
434.8000,0.0354203
434.6000,0.035566
434.4000,0.0357715
434.2000,0.0360534
434.0000,0.0362035
433.8000,0.0364024
433.6000,0.0367905
433.4000,0.0370172
433.2000,0.037284
433.0000,0.0375831
432.8000,0.0377605
432.6000,0.0380794
432.4000,0.0385042
432.2000,0.0388429
432.0000,0.0390254
431.8000,0.0391959
431.6000,0.0395202
431.4000,0.039859
431.2000,0.040223
431.0000,0.0406356
430.8000,0.040981
430.6000,0.0411405
430.4000,0.0414236
430.2000,0.0420194
430.0000,0.0425061
429.8000,0.0428895
429.6000,0.0432676
429.4000,0.0438033
429.2000,0.0442344
429.0000,0.0445458
428.8000,0.0449623
428.6000,0.0454354
428.4000,0.0457358
428.2000,0.0464036
428.0000,0.0470906
427.8000,0.0475698
427.6000,0.0480567
427.4000,0.048256
427.2000,0.0484548
427.0000,0.0489821
426.8000,0.0499063
426.6000,0.0504854
426.4000,0.0506525
426.2000,0.0511557
426.0000,0.0520332
425.8000,0.0523735
425.6000,0.0527795
425.4000,0.0534224
425.2000,0.0538328
425.0000,0.0543593
424.8000,0.0547864
424.6000,0.0555909
424.4000,0.0564682
424.2000,0.0568825
424.0000,0.0574096
423.8000,0.0578574
423.6000,0.0581998
423.4000,0.0586425
423.2000,0.0591368
423.0000,0.0595458
422.8000,0.0601467
422.6000,0.0606947
422.4000,0.0610691
422.2000,0.0616787
422.0000,0.0621937
421.8000,0.0628027
421.6000,0.0632466
421.4000,0.0635546
421.2000,0.0641666
421.0000,0.0645598
420.8000,0.0649224
420.6000,0.0656115
420.4000,0.066274
420.2000,0.0666332
420.0000,0.0669085
419.8000,0.0675795
419.6000,0.0682253
419.4000,0.0686513
419.2000,0.0691233
419.0000,0.0695095
418.8000,0.0696709
418.6000,0.0704413
418.4000,0.0711898
418.2000,0.0713918
418.0000,0.0719169
417.8000,0.0722358
417.6000,0.0727534
417.4000,0.073208
417.2000,0.0734158
417.0000,0.0737174
416.8000,0.0742558
416.6000,0.0749111
416.4000,0.075224
416.2000,0.0757888
416.0000,0.0760968
415.8000,0.0763432
415.6000,0.0770595
415.4000,0.0773862
415.2000,0.0778093
415.0000,0.0782813
414.8000,0.0786355
414.6000,0.0788902
414.4000,0.079153
414.2000,0.0798785
414.0000,0.0801199
413.8000,0.0801733
413.6000,0.0806686
413.4000,0.0811725
413.2000,0.0815879
413.0000,0.0819254
412.8000,0.0823323
412.6000,0.0827915
412.4000,0.0833328
412.2000,0.0833091
412.0000,0.0831929
411.8000,0.0836614
411.6000,0.084225
411.4000,0.0845895
411.2000,0.0848745
411.0000,0.0854542
410.8000,0.0856475
410.6000,0.0861912
410.4000,0.0870816
410.2000,0.0869583
410.0000,0.0865465
409.8000,0.0871047
409.6000,0.0873258
409.4000,0.0872624
409.2000,0.0875862
409.0000,0.0881735
408.8000,0.0887845
408.6000,0.0890699
408.4000,0.089277
408.2000,0.0896649
408.0000,0.0898934
407.8000,0.0898993
407.6000,0.089922
407.4000,0.0902016
407.2000,0.0910697
407.0000,0.0916286
406.8000,0.0918985
406.6000,0.0919589
406.4000,0.0927344
406.2000,0.0927093
406.0000,0.0923388
405.8000,0.0928096
405.6000,0.0930872
405.4000,0.0934934
405.2000,0.0939811
405.0000,0.0943609
404.8000,0.09462
404.6000,0.0947521
404.4000,0.09498
404.2000,0.0954399
404.0000,0.0955567
403.8000,0.0958875
403.6000,0.0959218
403.4000,0.0962932
403.2000,0.0973113
403.0000,0.0975585
402.8000,0.0975703
402.6000,0.0982417
402.4000,0.0985751
402.2000,0.0986999
402.0000,0.098968
401.8000,0.0988387
401.6000,0.0997381
401.4000,0.100828
401.2000,0.101165
401.0000,0.101183
400.8000,0.101315
400.6000,0.102076
400.4000,0.102518
400.2000,0.102743
400.0000,0.103619
399.8000,0.104024
399.6000,0.104583
399.4000,0.104987
399.2000,0.105287
399.0000,0.105933
398.8000,0.1068
398.6000,0.107124
398.4000,0.107555
398.2000,0.108237
398.0000,0.108791
397.8000,0.109538
397.6000,0.110179
397.4000,0.110378
397.2000,0.110659
397.0000,0.1114
396.8000,0.112032
396.6000,0.112723
396.4000,0.113293
396.2000,0.113876
396.0000,0.11482
395.8000,0.11568
395.6000,0.116293
395.4000,0.117167
395.2000,0.117789
395.0000,0.118412
394.8000,0.119101
394.6000,0.11949
394.4000,0.120234
394.2000,0.121171
394.0000,0.121989
393.8000,0.12243
393.6000,0.12318
393.4000,0.123993
393.2000,0.124361
393.0000,0.125075
392.8000,0.12613
392.6000,0.126902
392.4000,0.12763
392.2000,0.128478
392.0000,0.129222
391.8000,0.130345
391.6000,0.131214
391.4000,0.131811
391.2000,0.132677
391.0000,0.133244
390.8000,0.134084
390.6000,0.135093
390.4000,0.135854
390.2000,0.136483
390.0000,0.137272
389.8000,0.137966
389.6000,0.138639
389.4000,0.139393
389.2000,0.140168
389.0000,0.141051
388.8000,0.141792
388.6000,0.142456
388.4000,0.142964
388.2000,0.143818
388.0000,0.144722
387.8000,0.145204
387.6000,0.145681
387.4000,0.146291
387.2000,0.147155
387.0000,0.147793
386.8000,0.148263
386.6000,0.148785
386.4000,0.149745
386.2000,0.150663
386.0000,0.15119
385.8000,0.151648
385.6000,0.152051
385.4000,0.152634
385.2000,0.153207
385.0000,0.15365
384.8000,0.154202
384.6000,0.154544
384.4000,0.154571
384.2000,0.154947
384.0000,0.155523
383.8000,0.156032
383.6000,0.156308
383.4000,0.156884
383.2000,0.1573
383.0000,0.157319
382.8000,0.157538
382.6000,0.157909
382.4000,0.158149
382.2000,0.158291
382.0000,0.157997
381.8000,0.158065
381.6000,0.158511
381.4000,0.158304
381.2000,0.158207
381.0000,0.158474
380.8000,0.158739
380.6000,0.158913
380.4000,0.158943
380.2000,0.15855
380.0000,0.158432
379.8000,0.158596
379.6000,0.158644
379.4000,0.158794
379.2000,0.158703
379.0000,0.1586
378.8000,0.158411
378.6000,0.158283
378.4000,0.158356
378.2000,0.158336
378.0000,0.158065
377.8000,0.157714
377.6000,0.157732
377.4000,0.157971
377.2000,0.157858
377.0000,0.157218
376.8000,0.156834
376.6000,0.156346
376.4000,0.156211
376.2000,0.156424
376.0000,0.156338
375.8000,0.156093
375.6000,0.155684
375.4000,0.15566
375.2000,0.155592
375.0000,0.155407
374.8000,0.155182
374.6000,0.155251
374.4000,0.154983
374.2000,0.154051
374.0000,0.15397
373.8000,0.154182
373.6000,0.154325
373.4000,0.154202
373.2000,0.15386
373.0000,0.153942
372.8000,0.15387
372.6000,0.153884
372.4000,0.154102
372.2000,0.15426
372.0000,0.153975
371.8000,0.153383
371.6000,0.153178
371.4000,0.15296
371.2000,0.152858
371.0000,0.153393
370.8000,0.153552
370.6000,0.153136
370.4000,0.152653
370.2000,0.15213
370.0000,0.153094
369.8000,0.152691
369.6000,0.152938
369.4000,0.152726
369.2000,0.152597
369.0000,0.153331
368.8000,0.153518
368.6000,0.153319
368.4000,0.153022
368.2000,0.153086
368.0000,0.152944
367.8000,0.153301
367.6000,0.153228
367.4000,0.152845
367.2000,0.15319
367.0000,0.153268
366.8000,0.153937
366.6000,0.154582
366.4000,0.154084
366.2000,0.153326
366.0000,0.153365
365.8000,0.153906
365.6000,0.15422
365.4000,0.154039
365.2000,0.154408
365.0000,0.154722
364.8000,0.154245
364.6000,0.154446
364.4000,0.15455
364.2000,0.154168
364.0000,0.154384
363.8000,0.154284
363.6000,0.155214
363.4000,0.155894
363.2000,0.155426
363.0000,0.155595
362.8000,0.155221
362.6000,0.155515
362.4000,0.156141
362.2000,0.156083
362.0000,0.156634
361.8000,0.157164
361.6000,0.157057
361.4000,0.157213
361.2000,0.157841
361.0000,0.157998
360.8000,0.157853
360.6000,0.157907
360.4000,0.158059
360.2000,0.158488
360.0000,0.158657
359.8000,0.1586
359.6000,0.158809
359.4000,0.159177
359.2000,0.159687
359.0000,0.160516
358.8000,0.160669
358.6000,0.16024
358.4000,0.160801
358.2000,0.160786
358.0000,0.160588
357.8000,0.160943
357.6000,0.160717
357.4000,0.161525
357.2000,0.162632
357.0000,0.163052
356.8000,0.163036
356.6000,0.163048
356.4000,0.163563
356.2000,0.163803
356.0000,0.163889
355.8000,0.164232
355.6000,0.164729
355.4000,0.165408
355.2000,0.166094
355.0000,0.166302
354.8000,0.166413
354.6000,0.166812
354.4000,0.167175
354.2000,0.167739
354.0000,0.168291
353.8000,0.168626
353.6000,0.169158
353.4000,0.169642
353.2000,0.170258
353.0000,0.170543
352.8000,0.170369
352.6000,0.170922
352.4000,0.171289
352.2000,0.171456
352.0000,0.171957
351.8000,0.172759
351.6000,0.173036
351.4000,0.173079
351.2000,0.173662
351.0000,0.174325
350.8000,0.175167
350.6000,0.175862
350.4000,0.176178
350.2000,0.176696
350.0000,0.177159
349.8000,0.176969
349.6000,0.177058
349.4000,0.177647
349.2000,0.178482
349.0000,0.179721
348.8000,0.180143
348.6000,0.180398
348.4000,0.181256
348.2000,0.181906
348.0000,0.182755
347.8000,0.183015
347.6000,0.183385
347.4000,0.184562
347.2000,0.185227
347.0000,0.185736
346.8000,0.18712
346.6000,0.187728
346.4000,0.18809
346.2000,0.189607
346.0000,0.190058
345.8000,0.190823
345.6000,0.191708
345.4000,0.19201
345.2000,0.192984
345.0000,0.193905
344.8000,0.194737
344.6000,0.195392
344.4000,0.196631
344.2000,0.197004
344.0000,0.197458
343.8000,0.19838
343.6000,0.199084
343.4000,0.199876
343.2000,0.200759
343.0000,0.202485
342.8000,0.203137
342.6000,0.20382
342.4000,0.205277
342.2000,0.205894
342.0000,0.2062
341.8000,0.207201
341.6000,0.207861
341.4000,0.208694
341.2000,0.210094
341.0000,0.210999
340.8000,0.211815
340.6000,0.212175
340.4000,0.212065
340.2000,0.21338
340.0000,0.214934
339.8000,0.216474
339.6000,0.217047
339.4000,0.21755
339.2000,0.218243
339.0000,0.219057
338.8000,0.220134
338.6000,0.220479
338.4000,0.22105
338.2000,0.221088
338.0000,0.222195
337.8000,0.224014
337.6000,0.223698
337.4000,0.223662
337.2000,0.22459
337.0000,0.224646
336.8000,0.225525
336.6000,0.226118
336.4000,0.226028
336.2000,0.227822
336.0000,0.227761
335.8000,0.227171
335.6000,0.228347
335.4000,0.229435
335.2000,0.230381
335.0000,0.230434
334.8000,0.230194
334.6000,0.230632
334.4000,0.2316
334.2000,0.232571
334.0000,0.23248
333.8000,0.232219
333.6000,0.232898
333.4000,0.232902
333.2000,0.233544
333.0000,0.233787
332.8000,0.23381
332.6000,0.234835
332.4000,0.235575
332.2000,0.236505
332.0000,0.237156
331.8000,0.236461
331.6000,0.235426
331.4000,0.235761
331.2000,0.236032
331.0000,0.236125
330.8000,0.237317
330.6000,0.237868
330.4000,0.238678
330.2000,0.239252
330.0000,0.239008
329.8000,0.240088
329.6000,0.240031
329.4000,0.239485
329.2000,0.240148
329.0000,0.241192
328.8000,0.243121
328.6000,0.243505
328.4000,0.242868
328.2000,0.243885
328.0000,0.244998
327.8000,0.246261
327.6000,0.246728
327.4000,0.246624
327.2000,0.247666
327.0000,0.249142
326.8000,0.249023
326.6000,0.249761
326.4000,0.251638
326.2000,0.252459
326.0000,0.253099
325.8000,0.253923
325.6000,0.254957
325.4000,0.25673
325.2000,0.257857
325.0000,0.258129
324.8000,0.259328
324.6000,0.259643
324.4000,0.26068
324.2000,0.262291
324.0000,0.263305
323.8000,0.264628
323.6000,0.265716
323.4000,0.266142
323.2000,0.267001
323.0000,0.268993
322.8000,0.270458
322.6000,0.271037
322.4000,0.27194
322.2000,0.273263
322.0000,0.274788
321.8000,0.276255
321.6000,0.277442
321.4000,0.27853
321.2000,0.280399
321.0000,0.281834
320.8000,0.28221
320.6000,0.283963
320.4000,0.286147
320.2000,0.286602
320.0000,0.287197
319.8000,0.28898
319.6000,0.29048
319.4000,0.291454
319.2000,0.292821
319.0000,0.294545
318.8000,0.295894
318.6000,0.297055
318.4000,0.29823
318.2000,0.299913
318.0000,0.301627
317.8000,0.302593
317.6000,0.303635
317.4000,0.305233
317.2000,0.306606
317.0000,0.308455
316.8000,0.30977
316.6000,0.310574
316.4000,0.312056
316.2000,0.313484
316.0000,0.315883
315.8000,0.317576
315.6000,0.31816
315.4000,0.319571
315.2000,0.321485
315.0000,0.323315
314.8000,0.324797
314.6000,0.325729
314.4000,0.32729
314.2000,0.329028
314.0000,0.33007
313.8000,0.332059
313.6000,0.333631
313.4000,0.334942
313.2000,0.336458
313.0000,0.337782
312.8000,0.339179
312.6000,0.341387
312.4000,0.343017
312.2000,0.344322
312.0000,0.346445
311.8000,0.348022
311.6000,0.349631
311.4000,0.35171
311.2000,0.352546
311.0000,0.353555
310.8000,0.355561
310.6000,0.357595
310.4000,0.36028
310.2000,0.36242
310.0000,0.363058
309.8000,0.364165
309.6000,0.366187
309.4000,0.367939
309.2000,0.370203
309.0000,0.372614
308.8000,0.375264
308.6000,0.377197
308.4000,0.378696
308.2000,0.380223
308.0000,0.381594
307.8000,0.383061
307.6000,0.385079
307.4000,0.387407
307.2000,0.389835
307.0000,0.391591
306.8000,0.392478
306.6000,0.394505
306.4000,0.397483
306.2000,0.399052
306.0000,0.401175
305.8000,0.403383
305.6000,0.404187
305.4000,0.406601
305.2000,0.409107
305.0000,0.410993
304.8000,0.412748
304.6000,0.414485
304.4000,0.4165
304.2000,0.418982
304.0000,0.42138
303.8000,0.423524
303.6000,0.425512
303.4000,0.428188
303.2000,0.4304
303.0000,0.431946
302.8000,0.434404
302.6000,0.436832
302.4000,0.439584
302.2000,0.441909
302.0000,0.444606
301.8000,0.447133
301.6000,0.449455
301.4000,0.451967
301.2000,0.454463
301.0000,0.457148
300.8000,0.459529
300.6000,0.46151
300.4000,0.463923
300.2000,0.466807
300.0000,0.469024
299.8000,0.471424
299.6000,0.475072
299.4000,0.478617
299.2000,0.481327
299.0000,0.484565
298.8000,0.487615
298.6000,0.490042
298.4000,0.49257
298.2000,0.496362
298.0000,0.499279
297.8000,0.502082
297.6000,0.505852
297.4000,0.508406
297.2000,0.511437
297.0000,0.514444
296.8000,0.518047
296.6000,0.522636
296.4000,0.526403
296.2000,0.529571
296.0000,0.532634
295.8000,0.536048
295.6000,0.540101
295.4000,0.544203
295.2000,0.548067
295.0000,0.551718
294.8000,0.555378
294.6000,0.559373
294.4000,0.562316
294.2000,0.566052
294.0000,0.569805
293.8000,0.573694
293.6000,0.579148
293.4000,0.582848
293.2000,0.586418
293.0000,0.590071
292.8000,0.593238
292.6000,0.597107
292.4000,0.601443
292.2000,0.605783
292.0000,0.609188
291.8000,0.613334
291.6000,0.618061
291.4000,0.62201
291.2000,0.625842
291.0000,0.629485
290.8000,0.633453
290.6000,0.637962
290.4000,0.641575
290.2000,0.64532
290.0000,0.649334
289.8000,0.653455
289.6000,0.657626
289.4000,0.661313
289.2000,0.664617
289.0000,0.667414
288.8000,0.671198
288.6000,0.675046
288.4000,0.678887
288.2000,0.681938
288.0000,0.685212
287.8000,0.689354
287.6000,0.692567
287.4000,0.695681
287.2000,0.699409
287.0000,0.70367
286.8000,0.707089
286.6000,0.709956
286.4000,0.713753
286.2000,0.717728
286.0000,0.720702
285.8000,0.724002
285.6000,0.727594
285.4000,0.731458
285.2000,0.735426
285.0000,0.737901
284.8000,0.741623
284.6000,0.745482
284.4000,0.748454
284.2000,0.751818
284.0000,0.755537
283.8000,0.759933
283.6000,0.764073
283.4000,0.76773
283.2000,0.771005
283.0000,0.774683
282.8000,0.779582
282.6000,0.782931
282.4000,0.786214
282.2000,0.791298
282.0000,0.795608
281.8000,0.800412
281.6000,0.805115
281.4000,0.809117
281.2000,0.813748
281.0000,0.818836
280.8000,0.8232
280.6000,0.829062
280.4000,0.835636
280.2000,0.840095
280.0000,0.844386
279.8000,0.850779
279.6000,0.858213
279.4000,0.863859
279.2000,0.869165
279.0000,0.875732
278.8000,0.8827
278.6000,0.889957
278.4000,0.897247
278.2000,0.904527
278.0000,0.912504
277.8000,0.920432
277.6000,0.926844
277.4000,0.934336
277.2000,0.943565
277.0000,0.952547
276.8000,0.961821
276.6000,0.970833
276.4000,0.979229
276.2000,0.988083
276.0000,0.998017
275.8000,1.00693
275.6000,1.01547
275.4000,1.02539
275.2000,1.03476
275.0000,1.04431
274.8000,1.05384
274.6000,1.06354
274.4000,1.07322
274.2000,1.08223
274.0000,1.09111
273.8000,1.10103
273.6000,1.11102
273.4000,1.11853
273.2000,1.12692
273.0000,1.13633
272.8000,1.14383
272.6000,1.15063
272.4000,1.1587
272.2000,1.16665
272.0000,1.1727
271.8000,1.17723
271.6000,1.18377
271.4000,1.1907
271.2000,1.19573
271.0000,1.19987
270.8000,1.20451
270.6000,1.20924
270.4000,1.212
270.2000,1.2149
270.0000,1.2194
269.8000,1.22381
269.6000,1.22577
269.4000,1.2281
269.2000,1.23014
269.0000,1.23194
268.8000,1.23519
268.6000,1.23715
268.4000,1.23815
268.2000,1.23908
268.0000,1.24081
267.8000,1.24227
267.6000,1.24218
267.4000,1.24209
267.2000,1.24111
267.0000,1.24067
266.8000,1.24092
266.6000,1.2395
266.4000,1.23859
266.2000,1.23778
266.0000,1.23598
265.8000,1.23448
265.6000,1.23368
265.4000,1.23196
265.2000,1.22889
265.0000,1.22549
264.8000,1.2226
264.6000,1.22
264.4000,1.21766
264.2000,1.21562
264.0000,1.21256
263.8000,1.20967
263.6000,1.20642
263.4000,1.20243
263.2000,1.19962
263.0000,1.19781
262.8000,1.19473
262.6000,1.1914
262.4000,1.18859
262.2000,1.18517
262.0000,1.18209
261.8000,1.18003
261.6000,1.17738
261.4000,1.17512
261.2000,1.17267
261.0000,1.16972
260.8000,1.16813
260.6000,1.16547
260.4000,1.16285
260.2000,1.16155
260.0000,1.15899
259.8000,1.15599
259.6000,1.15499
259.4000,1.15439
259.2000,1.15317
259.0000,1.15135
258.8000,1.15009
258.6000,1.14928
258.4000,1.14822
258.2000,1.1468
258.0000,1.14541
257.8000,1.14477
257.6000,1.14441
257.4000,1.14429
257.2000,1.1441
257.0000,1.14339
256.8000,1.14185
256.6000,1.14123
256.4000,1.14071
256.2000,1.13974
256.0000,1.13997
255.8000,1.1391
255.6000,1.13819
255.4000,1.13679
255.2000,1.13503
255.0000,1.13387
254.8000,1.13281
254.6000,1.1316
254.4000,1.12924
254.2000,1.12694
254.0000,1.12378
253.8000,1.12071
253.6000,1.11784
253.4000,1.11361
253.2000,1.11001
253.0000,1.1059
252.8000,1.10049
252.6000,1.09586
252.4000,1.09098
252.2000,1.08507
252.0000,1.07929
251.8000,1.07285
251.6000,1.06566
251.4000,1.0595
251.2000,1.05315
251.0000,1.04534
250.8000,1.03707
250.6000,1.0291
250.4000,1.0209
250.2000,1.01264
250.0000,1.00447
249.8000,0.995631
249.6000,0.986887
249.4000,0.978264
249.2000,0.968919
249.0000,0.95982
248.8000,0.951374
248.6000,0.942513
248.4000,0.933181
248.2000,0.923842
248.0000,0.914691
247.8000,0.905906
247.6000,0.896889
247.4000,0.888312
247.2000,0.880178
247.0000,0.871457
246.8000,0.862502
246.6000,0.853797
246.4000,0.845666
246.2000,0.837475
246.0000,0.829003
245.8000,0.821622
245.6000,0.814791
245.4000,0.807391
245.2000,0.79977
245.0000,0.792542
244.8000,0.786264
244.6000,0.779596
244.4000,0.772723
244.2000,0.766539
244.0000,0.760462
243.8000,0.754683
243.6000,0.748622
243.4000,0.742914
243.2000,0.738174
243.0000,0.734011
242.8000,0.729513
242.6000,0.725549
242.4000,0.721668
242.2000,0.717778
242.0000,0.714736
241.8000,0.71156
241.6000,0.709136
241.4000,0.706935
241.2000,0.705196
241.0000,0.703662
240.8000,0.702628
240.6000,0.702604
240.4000,0.702145
240.2000,0.702278
240.0000,0.703005
239.8000,0.703831
239.6000,0.7057
239.4000,0.708161
239.2000,0.710641
239.0000,0.713892
238.8000,0.717725
238.6000,0.722005
238.4000,0.726671
238.2000,0.731814
238.0000,0.737627
237.8000,0.743971
237.6000,0.7509
237.4000,0.757683
237.2000,0.76551
237.0000,0.774926
236.8000,0.784007
236.6000,0.792393
236.4000,0.80194
236.2000,0.811809
236.0000,0.821642
235.8000,0.831884
235.6000,0.84212
235.4000,0.852819
235.2000,0.863442
235.0000,0.874634
234.8000,0.885074
234.6000,0.895214
234.4000,0.905039
234.2000,0.913785
234.0000,0.923509
233.8000,0.933333
233.6000,0.942527
233.4000,0.951198
233.2000,0.958847
233.0000,0.965707
232.8000,0.973062
232.6000,0.981004
232.4000,0.987877
232.2000,0.994704
232.0000,1.00173
231.8000,1.00674
231.6000,1.01214
231.4000,1.02085
231.2000,1.02618
231.0000,1.03097
230.8000,1.04006
230.6000,1.04672
230.4000,1.05557
230.2000,1.06927
230.0000,1.0846
229.8000,1.09841
229.6000,1.11016
229.4000,1.14375
229.2000,1.20431
229.0000,1.26316
228.8000,1.33808
228.6000,1.45474
228.4000,1.66309
228.2000,2.20033
228.0000,10
227.8000,10
227.6000,10
227.4000,10
227.2000,10
227.0000,10
226.8000,10
226.6000,10
226.4000,10
226.2000,-0.882922
226.0000,-0.5044
225.8000,-0.348076
225.6000,-0.281812
225.4000,-0.249226
225.2000,-0.186037
225.0000,-0.125551
224.8000,-0.0942837
224.6000,-0.0777236
224.4000,-0.0574484
224.2000,-0.0431789
224.0000,-0.0712325
223.8000,-0.0911367
223.6000,-0.0647565
223.4000,-0.0379951
223.2000,-0.0520674
223.0000,-0.0952934
222.8000,-0.077526
222.6000,-0.056466
222.4000,-0.0901067
222.2000,-0.0898624
222.0000,-0.0555679
221.8000,-0.0465728
221.6000,-0.0621025
221.4000,-0.0494604
221.2000,-0.0134832
221.0000,-0.0556639
220.8000,-0.0737889
220.6000,-0.0506146
220.4000,-0.0319158
220.2000,-0.058169
220.0000,-0.0390327
219.8000,0.00418502
219.6000,-0.0551537
219.4000,-0.0824675
219.2000,-0.0438182
219.0000,-0.0268056
218.8000,-0.0870627
218.6000,-0.102001
218.4000,-0.0722289
218.2000,-0.0576977
218.0000,-0.0381831
217.8000,-0.0268516
217.6000,-0.0164143
217.4000,-0.0327502
217.2000,-0.0238369
217.0000,-0.0169102
216.8000,-0.0546279
216.6000,-0.079236
216.4000,-0.0770123
216.2000,-0.0499245
216.0000,-0.0250178
215.8000,-0.0729615
215.6000,-0.0873084
215.4000,-0.0370356
215.2000,-0.0598965
215.0000,-0.0590411
214.8000,-0.010011
214.6000,-0.0273977
214.4000,-0.0536304
214.2000,-0.0258163
214.0000,-0.0333886
213.8000,-0.0605093
213.6000,-0.0488929
213.4000,-0.0563988
213.2000,-0.0461337
213.0000,-0.0484694
212.8000,-0.071131
212.6000,-0.0621143
212.4000,-0.0642727
212.2000,-0.0576514
212.0000,-0.0431238
211.8000,-0.060797
211.6000,-0.0829729
211.4000,-0.07429
211.2000,-0.0817904
211.0000,-0.0834264
210.8000,-0.0576388
210.6000,-0.0376643
210.4000,-0.00280205
210.2000,-0.00490256
210.0000,-0.0402085
209.8000,-0.0455425
209.6000,-0.0487346
209.4000,-0.0602528
209.2000,-0.0416268
209.0000,-0.0213175
208.8000,-0.0230467
208.6000,-0.0142244
208.4000,-0.0362499
208.2000,-0.0500122
208.0000,-0.0428402
207.8000,-0.0833131
207.6000,-0.0826368
207.4000,-0.0822007
207.2000,-0.0914757
207.0000,-0.0733178
206.8000,-0.0705532
206.6000,-0.0925017
206.4000,-0.0536168
206.2000,-0.0121658
206.0000,-0.0377422
205.8000,-0.0479602
205.6000,-0.0670928
205.4000,-0.0683961
205.2000,-0.0567783
205.0000,-0.0261256
204.8000,-0.0409483
204.6000,-0.0317943
204.4000,-0.0366062
204.2000,-0.0928434
204.0000,-0.0764748
203.8000,-0.0378522
203.6000,-0.0340261
203.4000,-0.0492787
203.2000,-0.0636499
203.0000,-0.069276
202.8000,-0.0611765
202.6000,-0.0229071
202.4000,-0.0484624
202.2000,-0.0780797
202.0000,-0.0304608
201.8000,-0.0183823
201.6000,-0.0423065
201.4000,-0.050998
201.2000,-0.0593167
201.0000,-0.0400226
200.8000,0.00328026
200.6000,-0.023655
200.4000,-0.0603293
200.2000,-0.0506691
200.0000,-0.0741739

##### Extended Information
[コメント情報]
試料名
コメント
測定者
所属
会社,日本大学文理学部

[データ情報]
作成日時,2025/07/01 17:50

データタイプ,等間隔データ
横軸,Wavelength [nm]
縦軸,Abs
スタート,900 nm
エンド,200 nm
データ間隔,0.2 nm
データ数,3501    

[測定情報]
装置名,V-730
機種名,V-730
シリアル番号,C235561798

付属品名,USE-753
付属品シリアルNo.,C235561798
  セル,
  対照光束,

測定日時,2025/07/01 17:49

測光モード,Abs
測定範囲,900 - 200 nm
データ取込間隔,0.2 nm
バンド幅,1.0 nm
レスポンス,0.06 sec
走査モード,連続
走査速度,400 nm/min
光源切換,340 nm
光源,D2/WI
フィルター切換,ステップ
補正,ベースライン
積算回数,1

