TITLE,231010-Ru(phen)3-100
DATA TYPE,ULTRAVIOLET SPECTRUM
ORIGIN,JASCO
OWNER,
DATE,23/10/10
TIME,13:52:06
SPECTROMETER/DATA SYSTEM,
LOCALE,1041
RESOLUTION,
DELTAX,-0.2
XUNITS,NANOMETERS
YUNITS,ABSORBANCE
FIRSTX,  900.0000
LASTX,  200.0000
NPOINTS,    3501
FIRSTY,     0.00211
MAXY,     1.46183
MINY,     0.00191
XYDATA
900.0000,0.00210696
899.8000,0.00210756
899.6000,0.0021075
899.4000,0.00210875
899.2000,0.00210821
899.0000,0.00210726
898.8000,0.00210935
898.6000,0.00210654
898.4000,0.00210642
898.2000,0.00210416
898.0000,0.00210231
897.8000,0.00209968
897.6000,0.00209717
897.4000,0.00209341
897.2000,0.00209359
897.0000,0.00209096
896.8000,0.00208989
896.6000,0.00208852
896.4000,0.00208625
896.2000,0.00208273
896.0000,0.00208111
895.8000,0.00207998
895.6000,0.00207759
895.4000,0.00207252
895.2000,0.00206822
895.0000,0.00206362
894.8000,0.0020613
894.6000,0.00205742
894.4000,0.00205127
894.2000,0.00204625
894.0000,0.00204345
893.8000,0.00203927
893.6000,0.00203324
893.4000,0.0020287
893.2000,0.0020222
893.0000,0.00201712
892.8000,0.00201342
892.6000,0.00200751
892.4000,0.00200136
892.2000,0.00199587
892.0000,0.00198901
891.8000,0.0019828
891.6000,0.00197892
891.4000,0.00197408
891.2000,0.00196972
891.0000,0.00196364
890.8000,0.00195617
890.6000,0.001952
890.4000,0.00194632
890.2000,0.00193988
890.0000,0.00193546
889.8000,0.00193122
889.6000,0.00192489
889.4000,0.0019194
889.2000,0.00191534
889.0000,0.00191331
888.8000,0.00191224
888.6000,0.00191158
888.4000,0.00191021
888.2000,0.00191158
888.0000,0.00191457
887.8000,0.00191761
887.6000,0.00192012
887.4000,0.00192203
887.2000,0.00192597
887.0000,0.0019314
886.8000,0.00193761
886.6000,0.00194406
886.4000,0.00194997
886.2000,0.00195582
886.0000,0.0019625
885.8000,0.00197068
885.6000,0.00197886
885.4000,0.0019868
885.2000,0.00199211
885.0000,0.00199856
884.8000,0.00200453
884.6000,0.00201199
884.4000,0.00201915
884.2000,0.00202327
884.0000,0.00203002
883.8000,0.00203795
883.6000,0.00204231
883.4000,0.00204828
883.2000,0.00205485
883.0000,0.0020595
882.8000,0.00206512
882.6000,0.00206971
882.4000,0.00207419
882.2000,0.00208022
882.0000,0.00208565
881.8000,0.00208977
881.6000,0.00209353
881.4000,0.00209735
881.2000,0.00210117
881.0000,0.00210493
880.8000,0.00211054
880.6000,0.00211323
880.4000,0.00211777
880.2000,0.00212039
880.0000,0.00212457
879.8000,0.0021303
879.6000,0.00213335
879.4000,0.00213472
879.2000,0.00213866
879.0000,0.00214337
878.8000,0.00214719
878.6000,0.00215113
878.4000,0.00215579
878.2000,0.00216128
878.0000,0.00216457
877.8000,0.00216791
877.6000,0.00217292
877.4000,0.00217716
877.2000,0.00218122
877.0000,0.00218462
876.8000,0.00218898
876.6000,0.00219358
876.4000,0.00219889
876.2000,0.00220247
876.0000,0.00220695
875.8000,0.00220993
875.6000,0.00221465
875.4000,0.00222014
875.2000,0.00222486
875.0000,0.00222796
874.8000,0.00223315
874.6000,0.00223757
874.4000,0.0022402
874.2000,0.00224282
874.0000,0.00224545
873.8000,0.00224724
873.6000,0.00224838
873.4000,0.00224969
873.2000,0.00225267
873.0000,0.002255
872.8000,0.00225745
872.6000,0.00226067
872.4000,0.00226479
872.2000,0.00226772
872.0000,0.00227052
871.8000,0.00227136
871.6000,0.0022741
871.4000,0.00227673
871.2000,0.00227685
871.0000,0.00227703
870.8000,0.00227763
870.6000,0.00228091
870.4000,0.00228085
870.2000,0.00228145
870.0000,0.00228163
869.8000,0.00228419
869.6000,0.0022864
869.4000,0.00228766
869.2000,0.00228921
869.0000,0.00228909
868.8000,0.00229148
868.6000,0.00229398
868.4000,0.00229524
868.2000,0.00229607
868.0000,0.00229715
867.8000,0.00229894
867.6000,0.00230091
867.4000,0.0023033
867.2000,0.00230646
867.0000,0.00230753
866.8000,0.00230753
866.6000,0.00230819
866.4000,0.00230855
866.2000,0.00230723
866.0000,0.00230741
865.8000,0.00230759
865.6000,0.00230914
865.4000,0.00231046
865.2000,0.00231111
865.0000,0.00231308
864.8000,0.0023135
864.6000,0.00231523
864.4000,0.00231876
864.2000,0.00231786
864.0000,0.00232049
863.8000,0.00232281
863.6000,0.00232365
863.4000,0.00232425
863.2000,0.00232502
863.0000,0.0023258
862.8000,0.00232431
862.6000,0.00232437
862.4000,0.00232425
862.2000,0.00232658
862.0000,0.00232598
861.8000,0.00232717
861.6000,0.00232831
861.4000,0.00232813
861.2000,0.00232837
861.0000,0.00232902
860.8000,0.00233087
860.6000,0.00233338
860.4000,0.00233666
860.2000,0.00233917
860.0000,0.00234036
859.8000,0.00234281
859.6000,0.00234269
859.4000,0.00234472
859.2000,0.00234598
859.0000,0.00234711
858.8000,0.00234681
858.6000,0.00234795
858.4000,0.00235093
858.2000,0.00235212
858.0000,0.00235147
857.8000,0.00235427
857.6000,0.00235386
857.4000,0.00235409
857.2000,0.00235571
857.0000,0.0023566
856.8000,0.00235684
856.6000,0.00235935
856.4000,0.00236233
856.2000,0.0023646
856.0000,0.0023646
855.8000,0.00236466
855.6000,0.00236723
855.4000,0.00236973
855.2000,0.00237117
855.0000,0.00237367
854.8000,0.00237552
854.6000,0.00237588
854.4000,0.00237666
854.2000,0.0023772
854.0000,0.00237618
853.8000,0.00237785
853.6000,0.00238108
853.4000,0.00238257
853.2000,0.00238669
853.0000,0.00238908
852.8000,0.00238812
852.6000,0.00238961
852.4000,0.00239158
852.2000,0.00239266
852.0000,0.0023917
851.8000,0.0023917
851.6000,0.00239367
851.4000,0.00239409
851.2000,0.00239672
851.0000,0.0024
850.8000,0.00240221
850.6000,0.00240376
850.4000,0.00240507
850.2000,0.0024037
850.0000,0.00240328
849.8000,0.00240412
849.6000,0.00240633
849.4000,0.00240788
849.2000,0.00240788
849.0000,0.00240746
848.8000,0.00240812
848.6000,0.00241098
848.4000,0.00241057
848.2000,0.00241194
848.0000,0.00241218
847.8000,0.00241409
847.6000,0.00241636
847.4000,0.00241707
847.2000,0.00241618
847.0000,0.00241576
846.8000,0.00241283
846.6000,0.00241313
846.4000,0.0024151
846.2000,0.00241624
846.0000,0.00241713
845.8000,0.00241647
845.6000,0.00241898
845.4000,0.00242071
845.2000,0.00242203
845.0000,0.00242256
844.8000,0.00242298
844.6000,0.00242501
844.4000,0.00242525
844.2000,0.00242459
844.0000,0.00242638
843.8000,0.00242973
843.6000,0.00243128
843.4000,0.00243235
843.2000,0.002432
843.0000,0.00243217
842.8000,0.00243265
842.6000,0.0024342
842.4000,0.0024351
842.2000,0.0024345
842.0000,0.00243647
841.8000,0.00243802
841.6000,0.00243802
841.4000,0.00243964
841.2000,0.00243916
841.0000,0.00244184
840.8000,0.00244471
840.6000,0.0024474
840.4000,0.00244919
840.2000,0.0024514
840.0000,0.00245319
839.8000,0.00245516
839.6000,0.00245569
839.4000,0.00245939
839.2000,0.00246208
839.0000,0.00246208
838.8000,0.00246345
838.6000,0.00246459
838.4000,0.00246501
838.2000,0.00246435
838.0000,0.00246596
837.8000,0.0024693
837.6000,0.00247002
837.4000,0.00247109
837.2000,0.00247402
837.0000,0.00247378
836.8000,0.00247671
836.6000,0.00247915
836.4000,0.00248077
836.2000,0.00248256
836.0000,0.00248566
835.8000,0.00248859
835.6000,0.00249175
835.4000,0.00249312
835.2000,0.00249581
835.0000,0.00249611
834.8000,0.00250034
834.6000,0.00250082
834.4000,0.00250136
834.2000,0.00250297
834.0000,0.00250566
833.8000,0.00250661
833.6000,0.00250667
833.4000,0.00250745
833.2000,0.00251013
833.0000,0.00251115
832.8000,0.00251079
832.6000,0.00251306
832.4000,0.00251587
832.2000,0.00251813
832.0000,0.00252094
831.8000,0.00252369
831.6000,0.00252428
831.4000,0.00252524
831.2000,0.00252697
831.0000,0.0025284
830.8000,0.00252721
830.6000,0.0025296
830.4000,0.00253151
830.2000,0.00253192
830.0000,0.00253342
829.8000,0.00253401
829.6000,0.00253324
829.4000,0.002533
829.2000,0.00253383
829.0000,0.00253425
828.8000,0.00253688
828.6000,0.00253903
828.4000,0.00253861
828.2000,0.00253879
828.0000,0.0025395
827.8000,0.00253992
827.6000,0.00254046
827.4000,0.00254106
827.2000,0.00254315
827.0000,0.00254374
826.8000,0.00254326
826.6000,0.00254362
826.4000,0.00254404
826.2000,0.00254512
826.0000,0.0025444
825.8000,0.0025444
825.6000,0.00254458
825.4000,0.00254297
825.2000,0.00254374
825.0000,0.0025444
824.8000,0.00254458
824.6000,0.00254428
824.4000,0.00254488
824.2000,0.00254506
824.0000,0.0025441
823.8000,0.00254488
823.6000,0.00254523
823.4000,0.00254631
823.2000,0.00254643
823.0000,0.0025472
822.8000,0.00254685
822.6000,0.0025484
822.4000,0.00254625
822.2000,0.00254529
822.0000,0.00254643
821.8000,0.00254655
821.6000,0.00254577
821.4000,0.0025447
821.2000,0.00254476
821.0000,0.00254488
820.8000,0.00254601
820.6000,0.00254559
820.4000,0.00254637
820.2000,0.00254613
820.0000,0.00254679
819.8000,0.00254512
819.6000,0.00254398
819.4000,0.00254243
819.2000,0.00254243
819.0000,0.00254243
818.8000,0.00254243
818.6000,0.00254261
818.4000,0.00254213
818.2000,0.00254416
818.0000,0.00254655
817.8000,0.00254786
817.6000,0.00254852
817.4000,0.00254917
817.2000,0.00254888
817.0000,0.0025484
816.8000,0.00254744
816.6000,0.00254744
816.4000,0.00254673
816.2000,0.00254601
816.0000,0.00254685
815.8000,0.00254792
815.6000,0.00254738
815.4000,0.00254691
815.2000,0.00254977
815.0000,0.00255132
814.8000,0.00255329
814.6000,0.00255282
814.4000,0.0025521
814.2000,0.00255317
814.0000,0.00255317
813.8000,0.00255138
813.6000,0.00255114
813.4000,0.00255359
813.2000,0.00255497
813.0000,0.00255693
812.8000,0.00255717
812.6000,0.00255855
812.4000,0.00255855
812.2000,0.00255723
812.0000,0.00255658
811.8000,0.00255688
811.6000,0.0025558
811.4000,0.00255538
811.2000,0.00255526
811.0000,0.00255479
810.8000,0.00255622
810.6000,0.00255741
810.4000,0.00255765
810.2000,0.00255729
810.0000,0.00255855
809.8000,0.00255789
809.6000,0.00255777
809.4000,0.00255562
809.2000,0.00255664
809.0000,0.00255873
808.8000,0.00255723
808.6000,0.00255729
808.4000,0.00255604
808.2000,0.00255634
808.0000,0.0025558
807.8000,0.00255628
807.6000,0.00255616
807.4000,0.00255938
807.2000,0.0025595
807.0000,0.00255992
806.8000,0.00255938
806.6000,0.00256022
806.4000,0.00255908
806.2000,0.00255789
806.0000,0.00255807
805.8000,0.00255962
805.6000,0.00256314
805.4000,0.00256374
805.2000,0.00256487
805.0000,0.00256684
804.8000,0.00256661
804.6000,0.00256905
804.4000,0.00257037
804.2000,0.00257055
804.0000,0.00257168
803.8000,0.00257299
803.6000,0.00257234
803.4000,0.00257371
803.2000,0.00257419
803.0000,0.00257711
802.8000,0.0025764
802.6000,0.00257598
802.4000,0.00257705
802.2000,0.0025749
802.0000,0.0025758
801.8000,0.00257687
801.6000,0.00257705
801.4000,0.0025764
801.2000,0.00257723
801.0000,0.00257687
800.8000,0.00257711
800.6000,0.00257729
800.4000,0.00257866
800.2000,0.00257819
800.0000,0.0025795
799.8000,0.00258123
799.6000,0.00258213
799.4000,0.00258272
799.2000,0.00258022
799.0000,0.00257837
798.8000,0.00258147
798.6000,0.00257825
798.4000,0.00257789
798.2000,0.00257538
798.0000,0.00257454
797.8000,0.00257287
797.6000,0.00257383
797.4000,0.00257162
797.2000,0.00257305
797.0000,0.00257228
796.8000,0.00257204
796.6000,0.00257186
796.4000,0.0025712
796.2000,0.00257216
796.0000,0.00257168
795.8000,0.00257419
795.6000,0.00257508
795.4000,0.00257502
795.2000,0.00257365
795.0000,0.00257275
794.8000,0.00257156
794.6000,0.00257156
794.4000,0.00257353
794.2000,0.00257371
794.0000,0.00257365
793.8000,0.00257449
793.6000,0.00257443
793.4000,0.00257413
793.2000,0.00257365
793.0000,0.00257377
792.8000,0.00257395
792.6000,0.00257634
792.4000,0.00257293
792.2000,0.00257419
792.0000,0.00257544
791.8000,0.00257693
791.6000,0.00257687
791.4000,0.0025786
791.2000,0.00257944
791.0000,0.00258159
790.8000,0.00257932
790.6000,0.00258057
790.4000,0.00258093
790.2000,0.00258045
790.0000,0.00258189
789.8000,0.00258075
789.6000,0.00258207
789.4000,0.00258111
789.2000,0.00257968
789.0000,0.00258099
788.8000,0.0025829
788.6000,0.00258553
788.4000,0.00258839
788.2000,0.00258929
788.0000,0.00258971
787.8000,0.00259007
787.6000,0.00258893
787.4000,0.00258845
787.2000,0.00258839
787.0000,0.00258929
786.8000,0.00258923
786.6000,0.00258989
786.4000,0.00259192
786.2000,0.00259054
786.0000,0.00259084
785.8000,0.00259174
785.6000,0.00259198
785.4000,0.00259263
785.2000,0.00259287
785.0000,0.00259221
784.8000,0.00259186
784.6000,0.00259341
784.4000,0.00259544
784.2000,0.0025955
784.0000,0.00259645
783.8000,0.00259741
783.6000,0.00259741
783.4000,0.00259723
783.2000,0.00259663
783.0000,0.00259717
782.8000,0.00259783
782.6000,0.00259747
782.4000,0.002598
782.2000,0.00259645
782.0000,0.00259592
781.8000,0.00259681
781.6000,0.00259448
781.4000,0.00259341
781.2000,0.00259347
781.0000,0.00259556
780.8000,0.00259514
780.6000,0.00259389
780.4000,0.00259466
780.2000,0.00259448
780.0000,0.00259257
779.8000,0.00259198
779.6000,0.00259227
779.4000,0.00259209
779.2000,0.00259084
779.0000,0.00259024
778.8000,0.00258989
778.6000,0.00259042
778.4000,0.00258953
778.2000,0.00258917
778.0000,0.00258857
777.8000,0.00258738
777.6000,0.0025872
777.4000,0.00258726
777.2000,0.00258601
777.0000,0.0025863
776.8000,0.00258595
776.6000,0.00258654
776.4000,0.00258565
776.2000,0.00258553
776.0000,0.00258517
775.8000,0.00258571
775.6000,0.00258463
775.4000,0.0025838
775.2000,0.00258547
775.0000,0.00258589
774.8000,0.00258559
774.6000,0.00258541
774.4000,0.00258654
774.2000,0.00258529
774.0000,0.00258559
773.8000,0.00258607
773.6000,0.00258756
773.4000,0.0025881
773.2000,0.0025875
773.0000,0.00258738
772.8000,0.00258815
772.6000,0.00258756
772.4000,0.0025872
772.2000,0.00258821
772.0000,0.00258989
771.8000,0.00258953
771.6000,0.00258965
771.4000,0.00258977
771.2000,0.00258941
771.0000,0.00258815
770.8000,0.00258732
770.6000,0.00258744
770.4000,0.00258815
770.2000,0.00258893
770.0000,0.00259001
769.8000,0.00258941
769.6000,0.00258792
769.4000,0.00258714
769.2000,0.0025881
769.0000,0.00258869
768.8000,0.00258833
768.6000,0.00258798
768.4000,0.00258893
768.2000,0.00258821
768.0000,0.00258827
767.8000,0.00259018
767.6000,0.00258977
767.4000,0.00258905
767.2000,0.00258804
767.0000,0.00258833
766.8000,0.00258642
766.6000,0.00258601
766.4000,0.0025866
766.2000,0.00258738
766.0000,0.00258654
765.8000,0.00258535
765.6000,0.0025841
765.4000,0.00258266
765.2000,0.00258254
765.0000,0.0025835
764.8000,0.00258451
764.6000,0.00258469
764.4000,0.00258613
764.2000,0.00258535
764.0000,0.00258427
763.8000,0.00258254
763.6000,0.00258153
763.4000,0.00258135
763.2000,0.00258117
763.0000,0.00258177
762.8000,0.00258045
762.6000,0.00258057
762.4000,0.00258063
762.2000,0.00258093
762.0000,0.00258153
761.8000,0.00258034
761.6000,0.0025798
761.4000,0.00257926
761.2000,0.00257866
761.0000,0.00257789
760.8000,0.00257801
760.6000,0.00257777
760.4000,0.00257968
760.2000,0.00258022
760.0000,0.00258063
759.8000,0.00257938
759.6000,0.00258039
759.4000,0.00258034
759.2000,0.00258045
759.0000,0.00258016
758.8000,0.00257986
758.6000,0.00257866
758.4000,0.00257771
758.2000,0.00257825
758.0000,0.00257884
757.8000,0.00257854
757.6000,0.0025798
757.4000,0.00258022
757.2000,0.00257986
757.0000,0.00258022
756.8000,0.00258063
756.6000,0.00258057
756.4000,0.00258004
756.2000,0.0025789
756.0000,0.00257813
755.8000,0.00257807
755.6000,0.00257866
755.4000,0.00258034
755.2000,0.00258063
755.0000,0.00257968
754.8000,0.00257956
754.6000,0.00258016
754.4000,0.00258069
754.2000,0.00258087
754.0000,0.00257974
753.8000,0.00257944
753.6000,0.00258051
753.4000,0.00258189
753.2000,0.00257986
753.0000,0.0025789
752.8000,0.00257825
752.6000,0.00257914
752.4000,0.0025789
752.2000,0.0025798
752.0000,0.00257801
751.8000,0.00257825
751.6000,0.00257783
751.4000,0.00257825
751.2000,0.00257717
751.0000,0.00257765
750.8000,0.00257699
750.6000,0.00257753
750.4000,0.00257801
750.2000,0.00257687
750.0000,0.00257592
749.8000,0.00257592
749.6000,0.00257675
749.4000,0.00257681
749.2000,0.00257466
749.0000,0.00257431
748.8000,0.00257437
748.6000,0.00257604
748.4000,0.00257693
748.2000,0.0025761
748.0000,0.00257598
747.8000,0.00257478
747.6000,0.00257514
747.4000,0.00257484
747.2000,0.00257299
747.0000,0.00257072
746.8000,0.00257287
746.6000,0.00257293
746.4000,0.00257395
746.2000,0.00257204
746.0000,0.00257072
745.8000,0.00257072
745.6000,0.00257216
745.4000,0.0025718
745.2000,0.00257096
745.0000,0.0025706
744.8000,0.00256935
744.6000,0.00256816
744.4000,0.00256834
744.2000,0.00256672
744.0000,0.00256661
743.8000,0.00256667
743.6000,0.00256714
743.4000,0.00256428
743.2000,0.00256207
743.0000,0.00255926
742.8000,0.00255747
742.6000,0.00255532
742.4000,0.00255294
742.2000,0.00255025
742.0000,0.00254709
741.8000,0.00254679
741.6000,0.00254452
741.4000,0.00254321
741.2000,0.00254297
741.0000,0.00254213
740.8000,0.00254135
740.6000,0.00254231
740.4000,0.00254058
740.2000,0.0025398
740.0000,0.00248279
739.8000,0.00248417
739.6000,0.00248512
739.4000,0.00248739
739.2000,0.00248799
739.0000,0.00248673
738.8000,0.00248906
738.6000,0.00249241
738.4000,0.0024933
738.2000,0.00249426
738.0000,0.00249778
737.8000,0.00250291
737.6000,0.00250679
737.4000,0.00251043
737.2000,0.002513
737.0000,0.00251461
736.8000,0.00251867
736.6000,0.00252345
736.4000,0.00252804
736.2000,0.00253312
736.0000,0.00253777
735.8000,0.00254291
735.6000,0.00254649
735.4000,0.00255204
735.2000,0.00255723
735.0000,0.00256308
734.8000,0.00256881
734.6000,0.00257204
734.4000,0.00257496
734.2000,0.00257926
734.0000,0.00257914
733.8000,0.00257831
733.6000,0.00257693
733.4000,0.00257449
733.2000,0.00257126
733.0000,0.00256392
732.8000,0.00255395
732.6000,0.00254541
732.4000,0.00253383
732.2000,0.00251658
732.0000,0.00250064
731.8000,0.00248005
731.6000,0.00245456
731.4000,0.00242853
731.2000,0.00239875
731.0000,0.00236908
730.8000,0.00233875
730.6000,0.00231332
730.4000,0.00228336
730.2000,0.00225554
730.0000,0.00222677
729.8000,0.00220146
729.6000,0.00217585
729.4000,0.00215179
729.2000,0.00213108
729.0000,0.00211251
728.8000,0.00209526
728.6000,0.0020829
728.4000,0.0020718
728.2000,0.0020644
728.0000,0.00205765
727.8000,0.00205742
727.6000,0.00206201
727.4000,0.00206774
727.2000,0.00207902
727.0000,0.00208983
726.8000,0.00210123
726.6000,0.0021115
726.4000,0.00212553
726.2000,0.00213532
726.0000,0.00214343
725.8000,0.00215561
725.6000,0.00216588
725.4000,0.00217662
725.2000,0.00218618
725.0000,0.00219776
724.8000,0.00220969
724.6000,0.00222062
724.4000,0.00222933
724.2000,0.00223811
724.0000,0.00224736
723.8000,0.00225315
723.6000,0.00226115
723.4000,0.00226867
723.2000,0.00227613
723.0000,0.0022836
722.8000,0.00229082
722.6000,0.00229858
722.4000,0.00230598
722.2000,0.00231303
722.0000,0.00231941
721.8000,0.00232592
721.6000,0.0023332
721.4000,0.00233571
721.2000,0.00233702
721.0000,0.00233637
720.8000,0.0023366
720.6000,0.00233756
720.4000,0.00233595
720.2000,0.00233666
720.0000,0.00233511
719.8000,0.00233601
719.6000,0.0023375
719.4000,0.00233535
719.2000,0.00233637
719.0000,0.00233631
718.8000,0.00233834
718.6000,0.00233851
718.4000,0.00233935
718.2000,0.00233893
718.0000,0.00234042
717.8000,0.00233953
717.6000,0.00233887
717.4000,0.00233989
717.2000,0.00233857
717.0000,0.00233893
716.8000,0.00233875
716.6000,0.00233726
716.4000,0.00233708
716.2000,0.00233672
716.0000,0.00233756
715.8000,0.00233887
715.6000,0.00233666
715.4000,0.00233678
715.2000,0.00233296
715.0000,0.00233374
714.8000,0.0023341
714.6000,0.00233654
714.4000,0.00233643
714.2000,0.00233511
714.0000,0.00233684
713.8000,0.00233631
713.6000,0.00233714
713.4000,0.00233565
713.2000,0.00233344
713.0000,0.0023332
712.8000,0.00233165
712.6000,0.00233022
712.4000,0.00232878
712.2000,0.00232687
712.0000,0.00232544
711.8000,0.00232675
711.6000,0.0023267
711.4000,0.00232687
711.2000,0.0023264
711.0000,0.00232705
710.8000,0.00232771
710.6000,0.00232562
710.4000,0.00232467
710.2000,0.00232532
710.0000,0.0023255
709.8000,0.00232526
709.6000,0.00232323
709.4000,0.00232132
709.2000,0.00232061
709.0000,0.00232198
708.8000,0.00232365
708.6000,0.00232431
708.4000,0.00232335
708.2000,0.00232246
708.0000,0.00232132
707.8000,0.00232156
707.6000,0.00232108
707.4000,0.00232132
707.2000,0.00232049
707.0000,0.00232019
706.8000,0.00232001
706.6000,0.00232144
706.4000,0.00232025
706.2000,0.00232001
706.0000,0.00232079
705.8000,0.00231959
705.6000,0.00231846
705.4000,0.00231822
705.2000,0.00231691
705.0000,0.00231643
704.8000,0.00231577
704.6000,0.00231416
704.4000,0.00231326
704.2000,0.00231332
704.0000,0.00231171
703.8000,0.00231195
703.6000,0.00231034
703.4000,0.00230807
703.2000,0.00230622
703.0000,0.0023058
702.8000,0.00230532
702.6000,0.0023021
702.4000,0.00230079
702.2000,0.00229798
702.0000,0.0022978
701.8000,0.00229577
701.6000,0.00229321
701.4000,0.00229136
701.2000,0.00228957
701.0000,0.00228843
700.8000,0.00228682
700.6000,0.00228509
700.4000,0.00228622
700.2000,0.0022833
700.0000,0.00228264
699.8000,0.00228336
699.6000,0.00228085
699.4000,0.00227924
699.2000,0.00227775
699.0000,0.00227566
698.8000,0.00227548
698.6000,0.00227255
698.4000,0.00227237
698.2000,0.00227213
698.0000,0.00227058
697.8000,0.00227058
697.6000,0.0022707
697.4000,0.00226963
697.2000,0.00226706
697.0000,0.0022676
696.8000,0.00226766
696.6000,0.00226766
696.4000,0.00226885
696.2000,0.00226825
696.0000,0.00226784
695.8000,0.00226557
695.6000,0.00226396
695.4000,0.00226306
695.2000,0.00226449
695.0000,0.00226318
694.8000,0.0022627
694.6000,0.00226211
694.4000,0.0022624
694.2000,0.00226264
694.0000,0.00226408
693.8000,0.00226437
693.6000,0.00226557
693.4000,0.00226563
693.2000,0.0022673
693.0000,0.00226778
692.8000,0.00226879
692.6000,0.00226748
692.4000,0.00226634
692.2000,0.00226754
692.0000,0.00226599
691.8000,0.00226646
691.6000,0.00226634
691.4000,0.00226587
691.2000,0.00226599
691.0000,0.00226509
690.8000,0.00226724
690.6000,0.00226611
690.4000,0.00226545
690.2000,0.00226414
690.0000,0.0022642
689.8000,0.00226497
689.6000,0.00226342
689.4000,0.0022639
689.2000,0.00226491
689.0000,0.00226521
688.8000,0.00226342
688.6000,0.00226163
688.4000,0.00226049
688.2000,0.00225894
688.0000,0.00225882
687.8000,0.00225811
687.6000,0.00225751
687.4000,0.00225715
687.2000,0.00225518
687.0000,0.00225363
686.8000,0.00225112
686.6000,0.00224963
686.4000,0.00224838
686.2000,0.00224796
686.0000,0.00224742
685.8000,0.00224748
685.6000,0.00224575
685.4000,0.00224444
685.2000,0.00224479
685.0000,0.00224235
684.8000,0.00224175
684.6000,0.00224115
684.4000,0.0022396
684.2000,0.00223883
684.0000,0.00224032
683.8000,0.00223883
683.6000,0.00223751
683.4000,0.00223668
683.2000,0.00223697
683.0000,0.00223757
682.8000,0.0022362
682.6000,0.00223632
682.4000,0.0022368
682.2000,0.00223894
682.0000,0.00223859
681.8000,0.00223793
681.6000,0.00223757
681.4000,0.00223644
681.2000,0.00223441
681.0000,0.00223542
680.8000,0.00223709
680.6000,0.00223483
680.4000,0.0022356
680.2000,0.00223733
680.0000,0.00223686
679.8000,0.00223626
679.6000,0.00223745
679.4000,0.00223775
679.2000,0.00223942
679.0000,0.00223883
678.8000,0.00223865
678.6000,0.00224032
678.4000,0.00224014
678.2000,0.00224026
678.0000,0.00224145
677.8000,0.00224288
677.6000,0.00223972
677.4000,0.00224091
677.2000,0.00223889
677.0000,0.00223757
676.8000,0.00223787
676.6000,0.00223787
676.4000,0.00223847
676.2000,0.00223733
676.0000,0.00223715
675.8000,0.00223721
675.6000,0.00223751
675.4000,0.00223924
675.2000,0.00223739
675.0000,0.00223697
674.8000,0.00223548
674.6000,0.00223387
674.4000,0.00223142
674.2000,0.00223124
674.0000,0.0022316
673.8000,0.00222957
673.6000,0.00222856
673.4000,0.00222862
673.2000,0.00222736
673.0000,0.00222557
672.8000,0.00222665
672.6000,0.00222581
672.4000,0.0022236
672.2000,0.0022242
672.0000,0.00222402
671.8000,0.00222277
671.6000,0.00222193
671.4000,0.00222086
671.2000,0.00222241
671.0000,0.00222128
670.8000,0.00222217
670.6000,0.00222229
670.4000,0.00222217
670.2000,0.0022199
670.0000,0.00221883
669.8000,0.00221937
669.6000,0.00221901
669.4000,0.00221507
669.2000,0.00221334
669.0000,0.00221172
668.8000,0.00221017
668.6000,0.00221143
668.4000,0.0022122
668.2000,0.00221202
668.0000,0.00221208
667.8000,0.00221316
667.6000,0.00221226
667.4000,0.00221238
667.2000,0.0022134
667.0000,0.00221113
666.8000,0.0022091
666.6000,0.00220874
666.4000,0.00220689
666.2000,0.00220558
666.0000,0.00220683
665.8000,0.00220337
665.6000,0.0022014
665.4000,0.00220098
665.2000,0.00219847
665.0000,0.0021974
664.8000,0.00219746
664.6000,0.00219591
664.4000,0.00219668
664.2000,0.00219698
664.0000,0.00219495
663.8000,0.00219459
663.6000,0.00219435
663.4000,0.00219328
663.2000,0.00219286
663.0000,0.00219322
662.8000,0.00219441
662.6000,0.0021931
662.4000,0.00219555
662.2000,0.00219376
662.0000,0.00219155
661.8000,0.00219089
661.6000,0.00219006
661.4000,0.00218689
661.2000,0.00218629
661.0000,0.00218707
660.8000,0.00218671
660.6000,0.00219006
660.4000,0.00219107
660.2000,0.00219
660.0000,0.00218964
659.8000,0.00219089
659.6000,0.00218892
659.4000,0.00218946
659.2000,0.00218958
659.0000,0.0021885
658.8000,0.00219203
658.6000,0.00219286
658.4000,0.0021934
658.2000,0.0021934
658.0000,0.00219304
657.8000,0.0021931
657.6000,0.00219501
657.4000,0.00219746
657.2000,0.00219728
657.0000,0.0021971
656.8000,0.00219716
656.6000,0.00219841
656.4000,0.00219847
656.2000,0.00220158
656.0000,0.00220068
655.8000,0.00220146
655.6000,0.0022039
655.4000,0.00220581
655.2000,0.00220635
655.0000,0.0022085
654.8000,0.00220832
654.6000,0.0022079
654.4000,0.00220707
654.2000,0.00220575
654.0000,0.0022051
653.8000,0.00220659
653.6000,0.00220713
653.4000,0.00220653
653.2000,0.00220844
653.0000,0.00220993
652.8000,0.00221065
652.6000,0.00221166
652.4000,0.0022082
652.2000,0.00220808
652.0000,0.00220719
651.8000,0.00220802
651.6000,0.00220713
651.4000,0.00220534
651.2000,0.0022042
651.0000,0.00220289
650.8000,0.00220319
650.6000,0.00220396
650.4000,0.00220617
650.2000,0.00220623
650.0000,0.00220605
649.8000,0.00220498
649.6000,0.00220283
649.4000,0.00220313
649.2000,0.00220211
649.0000,0.00220008
648.8000,0.0022014
648.6000,0.00220241
648.4000,0.00220301
648.2000,0.00220247
648.0000,0.00220205
647.8000,0.00220289
647.6000,0.00220396
647.4000,0.00220146
647.2000,0.00220044
647.0000,0.0022008
646.8000,0.00220134
646.6000,0.00220122
646.4000,0.00219943
646.2000,0.0022002
646.0000,0.0022017
645.8000,0.00220014
645.6000,0.00219949
645.4000,0.00219913
645.2000,0.00220056
645.0000,0.00220068
644.8000,0.0022017
644.6000,0.00220176
644.4000,0.00220092
644.2000,0.00220056
644.0000,0.00219919
643.8000,0.00219734
643.6000,0.00219865
643.4000,0.00219829
643.2000,0.0022002
643.0000,0.00220074
642.8000,0.00219985
642.6000,0.00220086
642.4000,0.00219955
642.2000,0.00219782
642.0000,0.00219668
641.8000,0.00219722
641.6000,0.00219895
641.4000,0.00219758
641.2000,0.0021965
641.0000,0.00219782
640.8000,0.00219716
640.6000,0.00219752
640.4000,0.00219734
640.2000,0.00219853
640.0000,0.00219985
639.8000,0.00219943
639.6000,0.00219901
639.4000,0.00219865
639.2000,0.00219919
639.0000,0.0022002
638.8000,0.00219871
638.6000,0.00219883
638.4000,0.00219662
638.2000,0.00219716
638.0000,0.00219937
637.8000,0.00220044
637.6000,0.00219913
637.4000,0.00220002
637.2000,0.00219895
637.0000,0.00220002
636.8000,0.00219871
636.6000,0.00219859
636.4000,0.00219967
636.2000,0.00219817
636.0000,0.00219782
635.8000,0.0021974
635.6000,0.00219961
635.4000,0.00219925
635.2000,0.00219859
635.0000,0.00219823
634.8000,0.00219853
634.6000,0.00219776
634.4000,0.00220038
634.2000,0.00219907
634.0000,0.0021968
633.8000,0.00219692
633.6000,0.00219811
633.4000,0.00219967
633.2000,0.00219931
633.0000,0.0022005
632.8000,0.00220092
632.6000,0.00220259
632.4000,0.00220241
632.2000,0.00220325
632.0000,0.00220361
631.8000,0.0022039
631.6000,0.00220074
631.4000,0.00219829
631.2000,0.00220002
631.0000,0.0022008
630.8000,0.00220068
630.6000,0.00219955
630.4000,0.00220062
630.2000,0.00220044
630.0000,0.00220014
629.8000,0.00219931
629.6000,0.00220062
629.4000,0.00220217
629.2000,0.00220092
629.0000,0.00220062
628.8000,0.00219871
628.6000,0.00219764
628.4000,0.00219716
628.2000,0.00219823
628.0000,0.00219674
627.8000,0.00219734
627.6000,0.00219877
627.4000,0.00219865
627.2000,0.00219782
627.0000,0.0021977
626.8000,0.00219877
626.6000,0.00219746
626.4000,0.0021971
626.2000,0.00219441
626.0000,0.00219405
625.8000,0.00219226
625.6000,0.00219125
625.4000,0.00218922
625.2000,0.00219029
625.0000,0.0021937
624.8000,0.00219286
624.6000,0.00219226
624.4000,0.00219167
624.2000,0.0021925
624.0000,0.00219382
623.8000,0.0021925
623.6000,0.0021928
623.4000,0.00219435
623.2000,0.00219304
623.0000,0.00219125
622.8000,0.00219155
622.6000,0.00219071
622.4000,0.00219203
622.2000,0.00219358
622.0000,0.00219459
621.8000,0.00219417
621.6000,0.00219316
621.4000,0.00219274
621.2000,0.00219173
621.0000,0.00218904
620.8000,0.00218916
620.6000,0.00218737
620.4000,0.00218558
620.2000,0.00218522
620.0000,0.00218271
619.8000,0.00218331
619.6000,0.00218432
619.4000,0.00218701
619.2000,0.00218803
619.0000,0.00218904
618.8000,0.0021882
618.6000,0.00218964
618.4000,0.00219023
618.2000,0.00218958
618.0000,0.0021894
617.8000,0.00218731
617.6000,0.00218641
617.4000,0.00218624
617.2000,0.00218492
617.0000,0.00218349
616.8000,0.00218331
616.6000,0.00218337
616.4000,0.0021811
616.2000,0.00218206
616.0000,0.00218164
615.8000,0.00218003
615.6000,0.00217937
615.4000,0.00217656
615.2000,0.00217734
615.0000,0.00217883
614.8000,0.00218146
614.6000,0.00218224
614.4000,0.00218062
614.2000,0.00218003
614.0000,0.0021805
613.8000,0.00218152
613.6000,0.00218158
613.4000,0.00218212
613.2000,0.00218027
613.0000,0.002178
612.8000,0.00217853
612.6000,0.00217883
612.4000,0.00217847
612.2000,0.00217471
612.0000,0.00217197
611.8000,0.00217203
611.6000,0.00217191
611.4000,0.00217262
611.2000,0.00217173
611.0000,0.00217227
610.8000,0.0021731
610.6000,0.00217358
610.4000,0.00217394
610.2000,0.00217406
610.0000,0.00217645
609.8000,0.00217537
609.6000,0.00217519
609.4000,0.00217453
609.2000,0.00217251
609.0000,0.00217352
608.8000,0.00217453
608.6000,0.00217227
608.4000,0.00216928
608.2000,0.0021694
608.0000,0.00217036
607.8000,0.00217
607.6000,0.00217227
607.4000,0.00217262
607.2000,0.00217292
607.0000,0.00217143
606.8000,0.00217298
606.6000,0.00217358
606.4000,0.00217346
606.2000,0.00217334
606.0000,0.002174
605.8000,0.00217382
605.6000,0.00217465
605.4000,0.0021743
605.2000,0.00217257
605.0000,0.00217119
604.8000,0.00217155
604.6000,0.00217042
604.4000,0.00217095
604.2000,0.00217012
604.0000,0.00216803
603.8000,0.00216868
603.6000,0.00216755
603.4000,0.00216857
603.2000,0.00217077
603.0000,0.00217233
602.8000,0.00217406
602.6000,0.00217364
602.4000,0.00217304
602.2000,0.0021743
602.0000,0.00217645
601.8000,0.00217633
601.6000,0.00217501
601.4000,0.00217245
601.2000,0.00216976
601.0000,0.00216767
600.8000,0.00216892
600.6000,0.00217024
600.4000,0.00216815
600.2000,0.00216916
600.0000,0.0021688
599.8000,0.0021691
599.6000,0.00217042
599.4000,0.00216952
599.2000,0.00217125
599.0000,0.00217137
598.8000,0.00217245
598.6000,0.00217203
598.4000,0.00217095
598.2000,0.00217197
598.0000,0.0021737
597.8000,0.00217621
597.6000,0.00217698
597.4000,0.00217716
597.2000,0.00217728
597.0000,0.00217668
596.8000,0.00217591
596.6000,0.00217465
596.4000,0.00217519
596.2000,0.00217674
596.0000,0.00217692
595.8000,0.00217704
595.6000,0.00217716
595.4000,0.002178
595.2000,0.00217931
595.0000,0.00218128
594.8000,0.00218021
594.6000,0.00218247
594.4000,0.00218062
594.2000,0.00218027
594.0000,0.00218104
593.8000,0.00217949
593.6000,0.00217889
593.4000,0.00217662
593.2000,0.00217573
593.0000,0.00217704
592.8000,0.00217358
592.6000,0.00217436
592.4000,0.0021737
592.2000,0.00217286
592.0000,0.00217364
591.8000,0.00217233
591.6000,0.00216928
591.4000,0.0021663
591.2000,0.00216857
591.0000,0.00216958
590.8000,0.00217209
590.6000,0.00217048
590.4000,0.00216916
590.2000,0.00217137
590.0000,0.00217245
589.8000,0.00217131
589.6000,0.00217167
589.4000,0.0021694
589.2000,0.00216737
589.0000,0.00216695
588.8000,0.00216636
588.6000,0.0021657
588.4000,0.00216868
588.2000,0.00216737
588.0000,0.00216719
587.8000,0.00216594
587.6000,0.0021651
587.4000,0.00216457
587.2000,0.0021657
587.0000,0.00216576
586.8000,0.00216498
586.6000,0.00216558
586.4000,0.00216928
586.2000,0.00216845
586.0000,0.00216934
585.8000,0.00217036
585.6000,0.00217048
585.4000,0.00217012
585.2000,0.00217113
585.0000,0.00217125
584.8000,0.00216988
584.6000,0.00216952
584.4000,0.0021663
584.2000,0.00216731
584.0000,0.00216671
583.8000,0.00216391
583.6000,0.00216188
583.4000,0.00216295
583.2000,0.00216301
583.0000,0.00216337
582.8000,0.00216272
582.6000,0.00216116
582.4000,0.00216033
582.2000,0.00216015
582.0000,0.00215884
581.8000,0.00215961
581.6000,0.00215931
581.4000,0.00216009
581.2000,0.00215973
581.0000,0.00215979
580.8000,0.00215985
580.6000,0.00216003
580.4000,0.00216128
580.2000,0.00216164
580.0000,0.00216027
579.8000,0.00216009
579.6000,0.00215949
579.4000,0.00216075
579.2000,0.00216063
579.0000,0.00216051
578.8000,0.00215991
578.6000,0.00216122
578.4000,0.00216069
578.2000,0.00216081
578.0000,0.00216194
577.8000,0.0021623
577.6000,0.00216266
577.4000,0.00216475
577.2000,0.00216486
577.0000,0.00216313
576.8000,0.00216206
576.6000,0.00216498
576.4000,0.00216516
576.2000,0.00216642
576.0000,0.00216695
575.8000,0.00216564
575.6000,0.0021648
575.4000,0.00216463
575.2000,0.00216546
575.0000,0.00216337
574.8000,0.00216307
574.6000,0.00216313
574.4000,0.00216176
574.2000,0.0021617
574.0000,0.00216176
573.8000,0.0021583
573.6000,0.0021589
573.4000,0.00215872
573.2000,0.00215788
573.0000,0.00215704
572.8000,0.002154
572.6000,0.00215269
572.4000,0.00215113
572.2000,0.00214982
572.0000,0.00215108
571.8000,0.00214839
571.6000,0.00214606
571.4000,0.0021466
571.2000,0.00214725
571.0000,0.00214588
570.8000,0.00214475
570.6000,0.00214606
570.4000,0.00214594
570.2000,0.00214129
570.0000,0.00214045
569.8000,0.00214009
569.6000,0.0021383
569.4000,0.00213938
569.2000,0.00213908
569.0000,0.00213872
568.8000,0.00213818
568.6000,0.00213669
568.4000,0.00213729
568.2000,0.0021377
568.0000,0.00213824
567.8000,0.00214051
567.6000,0.00213967
567.4000,0.00213979
567.2000,0.00213723
567.0000,0.00213615
566.8000,0.00213788
566.6000,0.00213681
566.4000,0.00213741
566.2000,0.00213824
566.0000,0.00213926
565.8000,0.00213818
565.6000,0.00213496
565.4000,0.00213436
565.2000,0.00213544
565.0000,0.00213263
564.8000,0.00213323
564.6000,0.00213281
564.4000,0.00213364
564.2000,0.00213233
564.0000,0.0021315
563.8000,0.00213305
563.6000,0.00213096
563.4000,0.00213084
563.2000,0.00213167
563.0000,0.00212988
562.8000,0.00212994
562.6000,0.00212648
562.4000,0.00212397
562.2000,0.00212594
562.0000,0.00212493
561.8000,0.00212332
561.6000,0.002122
561.4000,0.0021183
561.2000,0.00211621
561.0000,0.00211615
560.8000,0.00211723
560.6000,0.00211645
560.4000,0.00211615
560.2000,0.00211723
560.0000,0.00211669
559.8000,0.00211777
559.6000,0.00218958
559.4000,0.00218892
559.2000,0.00218952
559.0000,0.00218988
558.8000,0.0021885
558.6000,0.00219149
558.4000,0.00218707
558.2000,0.00218474
558.0000,0.00218343
557.8000,0.00218068
557.6000,0.00217961
557.4000,0.00217967
557.2000,0.00217907
557.0000,0.00217728
556.8000,0.00217662
556.6000,0.00217507
556.4000,0.00217382
556.2000,0.00217555
556.0000,0.00217495
555.8000,0.00217388
555.6000,0.00217376
555.4000,0.00217406
555.2000,0.00217442
555.0000,0.00217627
554.8000,0.00217656
554.6000,0.00217597
554.4000,0.00217513
554.2000,0.00217668
554.0000,0.00217388
553.8000,0.00217233
553.6000,0.00217197
553.4000,0.00217185
553.2000,0.00209651
553.0000,0.0020964
552.8000,0.00209538
552.6000,0.00209574
552.4000,0.00209472
552.2000,0.00209108
552.0000,0.00209269
551.8000,0.00209401
551.6000,0.00209395
551.4000,0.00209502
551.2000,0.00209681
551.0000,0.00209669
550.8000,0.00209801
550.6000,0.00209884
550.4000,0.00209848
550.2000,0.00210099
550.0000,0.00210141
549.8000,0.00210195
549.6000,0.00210374
549.4000,0.00210386
549.2000,0.00210302
549.0000,0.00210195
548.8000,0.00210111
548.6000,0.00209956
548.4000,0.00209848
548.2000,0.00209526
548.0000,0.00209341
547.8000,0.00208971
547.6000,0.00209126
547.4000,0.00209144
547.2000,0.00209013
547.0000,0.00208875
546.8000,0.00208768
546.6000,0.00208852
546.4000,0.00208816
546.2000,0.00208732
546.0000,0.00208935
545.8000,0.00208923
545.6000,0.00208864
545.4000,0.00208875
545.2000,0.00209001
545.0000,0.00209138
544.8000,0.00209066
544.6000,0.0020884
544.4000,0.00208911
544.2000,0.00208971
544.0000,0.00209078
543.8000,0.00209114
543.6000,0.0020915
543.4000,0.00209013
543.2000,0.00209001
543.0000,0.00209108
542.8000,0.00209168
542.6000,0.00209275
542.4000,0.00209216
542.2000,0.0020906
542.0000,0.00208971
541.8000,0.00209222
541.6000,0.0020921
541.4000,0.00209293
541.2000,0.00209305
541.0000,0.00209317
540.8000,0.00209717
540.6000,0.00209532
540.4000,0.00209544
540.2000,0.00209484
540.0000,0.00209544
539.8000,0.0020958
539.6000,0.00209496
539.4000,0.00209508
539.2000,0.00209395
539.0000,0.00209383
538.8000,0.00209419
538.6000,0.00209335
538.4000,0.00209443
538.2000,0.00209478
538.0000,0.00209443
537.8000,0.00209353
537.6000,0.00209126
537.4000,0.00209186
537.2000,0.00209371
537.0000,0.00209341
536.8000,0.00209359
536.6000,0.00209299
536.4000,0.00209413
536.2000,0.00209574
536.0000,0.00209443
535.8000,0.00209813
535.6000,0.00209896
535.4000,0.0020998
535.2000,0.00210063
535.0000,0.00210248
534.8000,0.00210213
534.6000,0.00210386
534.4000,0.00210356
534.2000,0.00210607
534.0000,0.00210642
533.8000,0.00210756
533.6000,0.00211001
533.4000,0.0021121
533.2000,0.00211102
533.0000,0.00211305
532.8000,0.00211586
532.6000,0.00211645
532.4000,0.00211609
532.2000,0.00212033
532.0000,0.00212093
531.8000,0.00212445
531.6000,0.00212959
531.4000,0.00213335
531.2000,0.00213735
531.0000,0.00213932
530.8000,0.00214021
530.6000,0.00214421
530.4000,0.00214451
530.2000,0.00214809
530.0000,0.00215072
529.8000,0.00215066
529.6000,0.00215663
529.4000,0.00215752
529.2000,0.00216134
529.0000,0.00216612
528.8000,0.00216982
528.6000,0.00217095
528.4000,0.002174
528.2000,0.00217871
528.0000,0.00217853
527.8000,0.0021823
527.6000,0.00218677
527.4000,0.0021888
527.2000,0.0021928
527.0000,0.00219805
526.8000,0.0022011
526.6000,0.00220575
526.4000,0.00221071
526.2000,0.00221375
526.0000,0.00221799
525.8000,0.0022174
525.6000,0.00222116
525.4000,0.00222277
525.2000,0.00222384
525.0000,0.00222539
524.8000,0.00222677
524.6000,0.00222856
524.4000,0.00223166
524.2000,0.00223471
524.0000,0.00224277
523.8000,0.00224676
523.6000,0.00224969
523.4000,0.00225321
523.2000,0.00225584
523.0000,0.00226187
522.8000,0.00226688
522.6000,0.00227046
522.4000,0.00227452
522.2000,0.00228079
522.0000,0.00228533
521.8000,0.00228694
521.6000,0.00229601
521.4000,0.00230127
521.2000,0.0023055
521.0000,0.00231088
520.8000,0.00231201
520.6000,0.00231338
520.4000,0.00231905
520.2000,0.0023221
520.0000,0.00232807
519.8000,0.00233446
519.6000,0.00234036
519.4000,0.00234586
519.2000,0.00235081
519.0000,0.00235583
518.8000,0.00236102
518.6000,0.00236824
518.4000,0.00237409
518.2000,0.00238132
518.0000,0.00239009
517.8000,0.00239857
517.6000,0.00240627
517.4000,0.00241468
517.2000,0.00242292
517.0000,0.0024311
516.8000,0.00244107
516.6000,0.00244978
516.4000,0.00245772
516.2000,0.00246572
516.0000,0.00247605
515.8000,0.00248548
515.6000,0.00249372
515.4000,0.00250094
515.2000,0.00250697
515.0000,0.0025176
514.8000,0.00252864
514.6000,0.00253747
514.4000,0.00254929
514.2000,0.00256034
514.0000,0.0025706
513.8000,0.00258314
513.6000,0.00259036
513.4000,0.00260165
513.2000,0.00261197
513.0000,0.00262033
512.8000,0.00263191
512.6000,0.00264648
512.4000,0.00265615
512.2000,0.00266874
512.0000,0.00268402
511.8000,0.00269572
511.6000,0.00270486
511.4000,0.00271489
511.2000,0.00272139
511.0000,0.00273255
510.8000,0.00274467
510.6000,0.00275488
510.4000,0.00276754
510.2000,0.00278037
510.0000,0.00279201
509.8000,0.00280419
509.6000,0.00281559
509.4000,0.0028292
509.2000,0.00284132
509.0000,0.00285708
508.8000,0.00287069
508.6000,0.00288621
508.4000,0.00289755
508.2000,0.00291444
508.0000,0.00292978
507.8000,0.00294441
507.6000,0.00296118
507.4000,0.00297336
507.2000,0.00298918
507.0000,0.00300571
506.8000,0.00302249
506.6000,0.00304082
506.4000,0.00305729
506.2000,0.00306977
506.0000,0.00309144
505.8000,0.00310845
505.6000,0.00312427
505.4000,0.0031445
505.2000,0.00316373
505.0000,0.0031842
504.8000,0.00320808
504.6000,0.0032273
504.4000,0.00324604
504.2000,0.0032704
504.0000,0.00328681
503.8000,0.00330592
503.6000,0.00332699
503.4000,0.00334812
503.2000,0.00336913
503.0000,0.00338877
502.8000,0.00341229
502.6000,0.00343318
502.4000,0.00345664
502.2000,0.00347622
502.0000,0.00350309
501.8000,0.0035229
501.6000,0.00354684
501.4000,0.00357078
501.2000,0.00359424
501.0000,0.00362253
500.8000,0.00364922
500.6000,0.00367441
500.4000,0.00370211
500.2000,0.00373076
500.0000,0.00372885
499.8000,0.00375726
499.6000,0.00378162
499.4000,0.00380812
499.2000,0.00383779
499.0000,0.00386829
498.8000,0.00389551
498.6000,0.00392309
498.4000,0.00395909
498.2000,0.00398977
498.0000,0.00402123
497.8000,0.00404899
497.6000,0.00407991
497.4000,0.00411602
497.2000,0.00415053
497.0000,0.00418533
496.8000,0.0042144
496.6000,0.00425034
496.4000,0.00428042
496.2000,0.00431486
496.0000,0.00435128
495.8000,0.00438184
495.6000,0.00441479
495.4000,0.00444876
495.2000,0.00448099
495.0000,0.00452445
494.8000,0.00456355
494.6000,0.00460468
494.4000,0.00464109
494.2000,0.00467846
494.0000,0.0047175
493.8000,0.00475624
493.6000,0.00479015
493.4000,0.00482805
493.2000,0.00486853
493.0000,0.00490399
492.8000,0.00494864
492.6000,0.00498893
492.4000,0.00503048
492.2000,0.00507805
492.0000,0.00512229
491.8000,0.00516157
491.6000,0.00520872
491.4000,0.00525875
491.2000,0.00530829
491.0000,0.00535193
490.8000,0.00540261
490.6000,0.0054506
490.4000,0.00549842
490.2000,0.00554498
490.0000,0.00559375
489.8000,0.00564491
489.6000,0.00569201
489.4000,0.00574376
489.2000,0.00579176
489.0000,0.00584202
488.8000,0.00589395
488.6000,0.00594517
488.4000,0.00599537
488.2000,0.00604557
488.0000,0.0061027
487.8000,0.00616132
487.6000,0.00621475
487.4000,0.00626722
487.2000,0.00632972
487.0000,0.00639604
486.8000,0.00644946
486.6000,0.00651095
486.4000,0.00656533
486.2000,0.00662216
486.0000,0.00668615
485.8000,0.00674328
485.6000,0.00680238
485.4000,0.00687031
485.2000,0.00693555
485.0000,0.00699572
484.8000,0.00705273
484.6000,0.00711422
484.4000,0.00717576
484.2000,0.00723725
484.0000,0.00731007
483.8000,0.00737407
483.6000,0.00744349
483.4000,0.00750921
483.2000,0.00757792
483.0000,0.00764699
482.8000,0.00771695
482.6000,0.00779175
482.4000,0.00786123
482.2000,0.00793024
482.0000,0.00800438
481.8000,0.00807971
481.6000,0.00815098
481.4000,0.00822423
481.2000,0.00830314
481.0000,0.00838104
480.8000,0.00845638
480.6000,0.00852843
480.4000,0.00861934
480.2000,0.00870315
480.0000,0.00878631
479.8000,0.00887436
479.6000,0.00895494
479.4000,0.00904025
479.2000,0.00912734
479.0000,0.00921127
478.8000,0.00929245
478.6000,0.00938456
478.4000,0.00947339
478.2000,0.00956496
478.0000,0.00965533
477.8000,0.00974834
477.6000,0.00983895
477.4000,0.0099344
477.2000,0.0100282
477.0000,0.0101219
476.8000,0.0102206
476.6000,0.0103181
476.4000,0.0104154
476.2000,0.0105084
476.0000,0.0106092
475.8000,0.0107074
475.6000,0.0108089
475.4000,0.0109029
475.2000,0.0110041
475.0000,0.0111025
474.8000,0.0112065
474.6000,0.0113102
474.4000,0.0114122
474.2000,0.0115097
474.0000,0.0116013
473.8000,0.0117022
473.6000,0.0118054
473.4000,0.0119016
473.2000,0.0119999
473.0000,0.012096
472.8000,0.0121925
472.6000,0.0122902
472.4000,0.0123893
472.2000,0.0124867
472.0000,0.0125845
471.8000,0.0126797
471.6000,0.0127734
471.4000,0.012864
471.2000,0.0129519
471.0000,0.0130416
470.8000,0.0131301
470.6000,0.0132206
470.4000,0.0133038
470.2000,0.0133828
470.0000,0.0134638
469.8000,0.0135437
469.6000,0.0136236
469.4000,0.0137054
469.2000,0.0137753
469.0000,0.0138525
468.8000,0.0139255
468.6000,0.0139971
468.4000,0.014052
468.2000,0.0141136
468.0000,0.0141805
467.8000,0.0142426
467.6000,0.0143035
467.4000,0.0143559
467.2000,0.0144101
467.0000,0.0144632
466.8000,0.0145136
466.6000,0.0145633
466.4000,0.0146047
466.2000,0.0146541
466.0000,0.0146949
465.8000,0.0147302
465.6000,0.0147641
465.4000,0.0147977
465.2000,0.0148361
465.0000,0.0148683
464.8000,0.0149045
464.6000,0.0149382
464.4000,0.0149715
464.2000,0.0149998
464.0000,0.0150283
463.8000,0.0150585
463.6000,0.0150859
463.4000,0.0151178
463.2000,0.0151409
463.0000,0.0151666
462.8000,0.0151998
462.6000,0.0152262
462.4000,0.0152493
462.2000,0.0152747
462.0000,0.0153131
461.8000,0.0153455
461.6000,0.0153723
461.4000,0.0154038
461.2000,0.0154374
461.0000,0.0154709
460.8000,0.0155031
460.6000,0.0155405
460.4000,0.0155811
460.2000,0.0156269
460.0000,0.0156726
459.8000,0.015709
459.6000,0.0157546
459.4000,0.0158033
459.2000,0.0158589
459.0000,0.0159097
458.8000,0.0159666
458.6000,0.0160269
458.4000,0.0160806
458.2000,0.0161345
458.0000,0.0161872
457.8000,0.0162588
457.6000,0.0163272
457.4000,0.0163961
457.2000,0.0164736
457.0000,0.0165395
456.8000,0.0166155
456.6000,0.0166832
456.4000,0.0167556
456.2000,0.0168338
456.0000,0.0169143
455.8000,0.0169934
455.6000,0.0170708
455.4000,0.0171494
455.2000,0.0172288
455.0000,0.0173161
454.8000,0.017399
454.6000,0.0174908
454.4000,0.0175782
454.2000,0.0176636
454.0000,0.0177435
453.8000,0.0178272
453.6000,0.017917
453.4000,0.0180114
453.2000,0.0181026
453.0000,0.0181846
452.8000,0.0182741
452.6000,0.0183727
452.4000,0.0184566
452.2000,0.0185498
452.0000,0.0186433
451.8000,0.0187387
451.6000,0.0188365
451.4000,0.0189218
451.2000,0.0190177
451.0000,0.0191089
450.8000,0.0192048
450.6000,0.0193031
450.4000,0.019393
450.2000,0.0194944
450.0000,0.0195891
449.8000,0.0196843
449.6000,0.0197803
449.4000,0.0198798
449.2000,0.0199733
449.0000,0.0200669
448.8000,0.0201601
448.6000,0.0202507
448.4000,0.0203459
448.2000,0.0204325
448.0000,0.0205266
447.8000,0.0206272
447.6000,0.0207326
447.4000,0.0208273
447.2000,0.0209314
447.0000,0.0210289
446.8000,0.0211259
446.6000,0.0212334
446.4000,0.0213302
446.2000,0.0214266
446.0000,0.021533
445.8000,0.0216384
445.6000,0.0217423
445.4000,0.021849
445.2000,0.0219537
445.0000,0.0220561
444.8000,0.0221596
444.6000,0.0222759
444.4000,0.0223745
444.2000,0.0224763
444.0000,0.02259
443.8000,0.0227032
443.6000,0.0228206
443.4000,0.0229257
443.2000,0.0230454
443.0000,0.0231645
442.8000,0.023292
442.6000,0.023418
442.4000,0.0235485
442.2000,0.0236767
442.0000,0.0238059
441.8000,0.0239386
441.6000,0.0240753
441.4000,0.0242033
441.2000,0.0243383
441.0000,0.0244806
440.8000,0.0246134
440.6000,0.0247519
440.4000,0.0248975
440.2000,0.025046
440.0000,0.0252009
439.8000,0.0253491
439.6000,0.0254885
439.4000,0.0256289
439.2000,0.0257737
439.0000,0.0259222
438.8000,0.0260802
438.6000,0.0262433
438.4000,0.0263987
438.2000,0.0265458
438.0000,0.0267088
437.8000,0.0268786
437.6000,0.0270409
437.4000,0.0272059
437.2000,0.0273639
437.0000,0.0275351
436.8000,0.027691
436.6000,0.0278556
436.4000,0.0280212
436.2000,0.0281964
436.0000,0.0283623
435.8000,0.0285342
435.6000,0.0286997
435.4000,0.0288753
435.2000,0.0290524
435.0000,0.0292314
434.8000,0.0294041
434.6000,0.0295752
434.4000,0.0297492
434.2000,0.0299275
434.0000,0.0301072
433.8000,0.0302981
433.6000,0.0304844
433.4000,0.0306734
433.2000,0.0308727
433.0000,0.0310669
432.8000,0.0312646
432.6000,0.0314667
432.4000,0.0316574
432.2000,0.0318491
432.0000,0.0320536
431.8000,0.0322569
431.6000,0.032466
431.4000,0.0326765
431.2000,0.0328969
431.0000,0.0331082
430.8000,0.0333289
430.6000,0.0335612
430.4000,0.0337975
430.2000,0.0340315
430.0000,0.0342859
429.8000,0.0345388
429.6000,0.0347872
429.4000,0.0350494
429.2000,0.0353177
429.0000,0.0355809
428.8000,0.0358508
428.6000,0.0361291
428.4000,0.0364109
428.2000,0.0366862
428.0000,0.0369783
427.8000,0.0372781
427.6000,0.0375833
427.4000,0.037879
427.2000,0.0381791
427.0000,0.0384905
426.8000,0.0388041
426.6000,0.0391276
426.4000,0.0394579
426.2000,0.0397805
426.0000,0.0401155
425.8000,0.0404524
425.6000,0.040787
425.4000,0.0411353
425.2000,0.0414864
425.0000,0.0418369
424.8000,0.0421776
424.6000,0.0425299
424.4000,0.0428819
424.2000,0.0432306
424.0000,0.0435874
423.8000,0.0439409
423.6000,0.0442883
423.4000,0.0446393
423.2000,0.0450054
423.0000,0.0453592
422.8000,0.0457098
422.6000,0.0460762
422.4000,0.0464257
422.2000,0.0467646
422.0000,0.0471213
421.8000,0.0474877
421.6000,0.0478384
421.4000,0.0481862
421.2000,0.0485384
421.0000,0.0488727
420.8000,0.0492259
420.6000,0.0495619
420.4000,0.0499069
420.2000,0.0502373
420.0000,0.050568
419.8000,0.0509044
419.6000,0.051242
419.4000,0.0515723
419.2000,0.0519058
419.0000,0.0522515
418.8000,0.0525582
418.6000,0.0528793
418.4000,0.0532181
418.2000,0.0535426
418.0000,0.0538757
417.8000,0.0541965
417.6000,0.0545151
417.4000,0.0548329
417.2000,0.0551398
417.0000,0.0554408
416.8000,0.0557396
416.6000,0.0560334
416.4000,0.0563435
416.2000,0.0566364
416.0000,0.0569254
415.8000,0.0572387
415.6000,0.057533
415.4000,0.0578315
415.2000,0.0581185
415.0000,0.0584154
414.8000,0.0586862
414.6000,0.0589759
414.4000,0.0592458
414.2000,0.0595332
414.0000,0.0597956
413.8000,0.0600807
413.6000,0.0603599
413.4000,0.0606216
413.2000,0.0608975
413.0000,0.061164
412.8000,0.0614175
412.6000,0.061658
412.4000,0.0619366
412.2000,0.0621997
412.0000,0.0624575
411.8000,0.0627075
411.6000,0.0629375
411.4000,0.0631822
411.2000,0.0634208
411.0000,0.0636474
410.8000,0.0638957
410.6000,0.0641303
410.4000,0.0643818
410.2000,0.0646192
410.0000,0.064845
409.8000,0.0650561
409.6000,0.0652824
409.4000,0.0654841
409.2000,0.0656806
409.0000,0.0658989
408.8000,0.0661347
408.6000,0.0663434
408.4000,0.0665857
408.2000,0.0668169
408.0000,0.0670243
407.8000,0.0672233
407.6000,0.0674341
407.4000,0.0676449
407.2000,0.0678452
407.0000,0.0680433
406.8000,0.0682307
406.6000,0.0684546
406.4000,0.0686696
406.2000,0.0688805
406.0000,0.0690764
405.8000,0.0692844
405.6000,0.0694462
405.4000,0.0696455
405.2000,0.069881
405.0000,0.0700929
404.8000,0.0702997
404.6000,0.0704839
404.4000,0.070692
404.2000,0.07087
404.0000,0.071048
403.8000,0.0712705
403.6000,0.0714776
403.4000,0.0716731
403.2000,0.0718785
403.0000,0.072098
402.8000,0.0723188
402.6000,0.0724868
402.4000,0.0726762
402.2000,0.0728841
402.0000,0.0730817
401.8000,0.073218
401.6000,0.0734024
401.4000,0.0736268
401.2000,0.073902
401.0000,0.0740701
400.8000,0.0742938
400.6000,0.0745252
400.4000,0.0747486
400.2000,0.0749218
400.0000,0.0748095
399.8000,0.075038
399.6000,0.0752652
399.4000,0.0754929
399.2000,0.075729
399.0000,0.0759888
398.8000,0.0762223
398.6000,0.076439
398.4000,0.0766859
398.2000,0.0769324
398.0000,0.0771818
397.8000,0.0774401
397.6000,0.0776818
397.4000,0.0779495
397.2000,0.0782148
397.0000,0.0784758
396.8000,0.0787628
396.6000,0.0790248
396.4000,0.0792871
396.2000,0.0795694
396.0000,0.0798467
395.8000,0.0801193
395.6000,0.080417
395.4000,0.0807222
395.2000,0.0810307
395.0000,0.0813365
394.8000,0.0816325
394.6000,0.081947
394.4000,0.0822696
394.2000,0.0825969
394.0000,0.0829264
393.8000,0.0832557
393.6000,0.0835911
393.4000,0.0839287
393.2000,0.084268
393.0000,0.0845962
392.8000,0.0849354
392.6000,0.0852727
392.4000,0.0856283
392.2000,0.0860061
392.0000,0.0863787
391.8000,0.0867427
391.6000,0.0871031
391.4000,0.0874929
391.2000,0.087893
391.0000,0.0882835
390.8000,0.0886863
390.6000,0.0890991
390.4000,0.0895022
390.2000,0.0899256
390.0000,0.0903596
389.8000,0.0907634
389.6000,0.0911941
389.4000,0.0916206
389.2000,0.0920307
389.0000,0.0924509
388.8000,0.0928613
388.6000,0.0932884
388.4000,0.0937416
388.2000,0.0941778
388.0000,0.0946043
387.8000,0.0950512
387.6000,0.0954956
387.4000,0.0959597
387.2000,0.0964079
387.0000,0.0968526
386.8000,0.0972778
386.6000,0.0977462
386.4000,0.0982002
386.2000,0.0986355
386.0000,0.0990552
385.8000,0.0994963
385.6000,0.0999409
385.4000,0.10038
385.2000,0.10084
385.0000,0.101272
384.8000,0.101698
384.6000,0.102135
384.4000,0.102585
384.2000,0.102993
384.0000,0.103391
383.8000,0.103805
383.6000,0.104206
383.4000,0.104615
383.2000,0.105023
383.0000,0.105423
382.8000,0.105833
382.6000,0.106243
382.4000,0.106646
382.2000,0.107041
382.0000,0.107404
381.8000,0.107792
381.6000,0.108167
381.4000,0.108518
381.2000,0.108865
381.0000,0.109214
380.8000,0.109573
380.6000,0.109921
380.4000,0.110293
380.2000,0.110616
380.0000,0.110936
379.8000,0.111264
379.6000,0.111586
379.4000,0.11189
379.2000,0.112176
379.0000,0.112492
378.8000,0.112783
378.6000,0.113075
378.4000,0.113333
378.2000,0.113585
378.0000,0.113844
377.8000,0.114127
377.6000,0.114402
377.4000,0.114663
377.2000,0.114915
377.0000,0.115165
376.8000,0.115397
376.6000,0.115639
376.4000,0.115862
376.2000,0.116072
376.0000,0.116293
375.8000,0.116502
375.6000,0.116723
375.4000,0.116902
375.2000,0.117116
375.0000,0.117322
374.8000,0.117517
374.6000,0.117694
374.4000,0.117867
374.2000,0.118029
374.0000,0.118186
373.8000,0.118333
373.6000,0.11848
373.4000,0.118619
373.2000,0.118771
373.0000,0.118916
372.8000,0.119064
372.6000,0.119184
372.4000,0.119282
372.2000,0.119387
372.0000,0.119545
371.8000,0.119682
371.6000,0.119787
371.4000,0.119903
371.2000,0.120008
371.0000,0.120105
370.8000,0.120207
370.6000,0.120316
370.4000,0.120424
370.2000,0.120542
370.0000,0.121156
369.8000,0.121189
369.6000,0.12127
369.4000,0.121295
369.2000,0.121382
369.0000,0.121444
368.8000,0.121525
368.6000,0.121619
368.4000,0.121723
368.2000,0.121816
368.0000,0.121899
367.8000,0.121955
367.6000,0.121993
367.4000,0.122081
367.2000,0.122202
367.0000,0.122253
366.8000,0.122331
366.6000,0.122373
366.4000,0.122475
366.2000,0.1225
366.0000,0.122571
365.8000,0.122669
365.6000,0.122757
365.4000,0.122836
365.2000,0.12285
365.0000,0.122909
364.8000,0.122999
364.6000,0.123073
364.4000,0.123143
364.2000,0.123233
364.0000,0.123331
363.8000,0.123418
363.6000,0.123488
363.4000,0.123593
363.2000,0.123644
363.0000,0.12375
362.8000,0.123804
362.6000,0.123867
362.4000,0.123929
362.2000,0.123993
362.0000,0.124058
361.8000,0.124128
361.6000,0.124198
361.4000,0.124301
361.2000,0.124403
361.0000,0.124479
360.8000,0.1246
360.6000,0.12467
360.4000,0.124788
360.2000,0.124883
360.0000,0.124986
359.8000,0.125148
359.6000,0.12527
359.4000,0.125391
359.2000,0.125515
359.0000,0.125644
358.8000,0.125825
358.6000,0.125989
358.4000,0.126127
358.2000,0.126311
358.0000,0.126455
357.8000,0.126598
357.6000,0.126762
357.4000,0.126915
357.2000,0.127104
357.0000,0.127288
356.8000,0.127512
356.6000,0.127737
356.4000,0.127947
356.2000,0.128187
356.0000,0.128404
355.8000,0.128685
355.6000,0.128954
355.4000,0.129185
355.2000,0.129435
355.0000,0.129679
354.8000,0.129932
354.6000,0.130217
354.4000,0.130479
354.2000,0.130799
354.0000,0.131116
353.8000,0.131417
353.6000,0.131719
353.4000,0.132021
353.2000,0.132352
353.0000,0.132658
352.8000,0.132959
352.6000,0.133297
352.4000,0.133633
352.2000,0.133932
352.0000,0.134273
351.8000,0.134591
351.6000,0.134948
351.4000,0.135343
351.2000,0.135709
351.0000,0.136121
350.8000,0.136529
350.6000,0.136918
350.4000,0.137305
350.2000,0.137703
350.0000,0.138122
349.8000,0.138519
349.6000,0.138959
349.4000,0.139371
349.2000,0.139795
349.0000,0.140211
348.8000,0.140664
348.6000,0.141149
348.4000,0.141617
348.2000,0.142084
348.0000,0.142521
347.8000,0.142996
347.6000,0.143466
347.4000,0.143953
347.2000,0.144447
347.0000,0.144967
346.8000,0.145494
346.6000,0.14601
346.4000,0.146551
346.2000,0.147079
346.0000,0.147594
345.8000,0.14816
345.6000,0.148702
345.4000,0.149273
345.2000,0.14984
345.0000,0.150352
344.8000,0.15094
344.6000,0.151483
344.4000,0.152063
344.2000,0.152639
344.0000,0.153207
343.8000,0.153795
343.6000,0.154372
343.4000,0.154966
343.2000,0.155533
343.0000,0.156102
342.8000,0.156679
342.6000,0.15731
342.4000,0.157876
342.2000,0.158412
342.0000,0.158994
341.8000,0.159555
341.6000,0.160155
341.4000,0.160714
341.2000,0.16126
341.0000,0.161851
340.8000,0.162404
340.6000,0.162931
340.4000,0.163446
340.2000,0.163981
340.0000,0.165093
339.8000,0.165628
339.6000,0.166162
339.4000,0.166615
339.2000,0.167072
339.0000,0.16759
338.8000,0.168064
338.6000,0.168463
338.4000,0.168955
338.2000,0.169475
338.0000,0.169915
337.8000,0.17037
337.6000,0.170745
337.4000,0.171205
337.2000,0.171683
337.0000,0.172139
336.8000,0.172602
336.6000,0.173023
336.4000,0.173434
336.2000,0.173859
336.0000,0.174356
335.8000,0.174852
335.6000,0.175315
335.4000,0.175778
335.2000,0.176314
335.0000,0.176795
334.8000,0.177343
334.6000,0.177863
334.4000,0.178313
334.2000,0.178795
334.0000,0.179282
333.8000,0.179746
333.6000,0.180257
333.4000,0.180794
333.2000,0.181293
333.0000,0.181825
332.8000,0.182342
332.6000,0.182875
332.4000,0.183388
332.2000,0.183979
332.0000,0.184463
331.8000,0.185003
331.6000,0.18553
331.4000,0.186044
331.2000,0.186616
331.0000,0.187183
330.8000,0.187774
330.6000,0.188408
330.4000,0.188985
330.2000,0.189499
330.0000,0.190093
329.8000,0.190672
329.6000,0.191238
329.4000,0.191826
329.2000,0.192407
329.0000,0.193055
328.8000,0.193626
328.6000,0.194264
328.4000,0.194844
328.2000,0.195457
328.0000,0.196075
327.8000,0.196727
327.6000,0.197307
327.4000,0.197985
327.2000,0.198565
327.0000,0.19914
326.8000,0.199791
326.6000,0.200427
326.4000,0.201113
326.2000,0.201761
326.0000,0.202496
325.8000,0.203189
325.6000,0.203897
325.4000,0.204564
325.2000,0.205276
325.0000,0.206051
324.8000,0.206807
324.6000,0.207486
324.4000,0.208178
324.2000,0.208828
324.0000,0.209558
323.8000,0.210291
323.6000,0.211042
323.4000,0.211788
323.2000,0.212537
323.0000,0.213258
322.8000,0.214015
322.6000,0.214782
322.4000,0.215566
322.2000,0.216303
322.0000,0.217115
321.8000,0.217904
321.6000,0.21866
321.4000,0.219468
321.2000,0.220279
321.0000,0.221076
320.8000,0.221953
320.6000,0.222803
320.4000,0.223584
320.2000,0.224366
320.0000,0.225187
319.8000,0.226019
319.6000,0.226831
319.4000,0.227628
319.2000,0.228484
319.0000,0.229351
318.8000,0.230222
318.6000,0.231096
318.4000,0.231941
318.2000,0.232809
318.0000,0.233702
317.8000,0.23464
317.6000,0.235536
317.4000,0.236474
317.2000,0.237363
317.0000,0.238228
316.8000,0.239117
316.6000,0.240039
316.4000,0.240917
316.2000,0.241815
316.0000,0.242654
315.8000,0.243532
315.6000,0.244395
315.4000,0.245291
315.2000,0.24624
315.0000,0.247115
314.8000,0.248089
314.6000,0.248984
314.4000,0.249897
314.2000,0.25081
314.0000,0.25179
313.8000,0.252778
313.6000,0.253748
313.4000,0.254717
313.2000,0.255731
313.0000,0.25678
312.8000,0.257768
312.6000,0.258747
312.4000,0.25974
312.2000,0.260728
312.0000,0.261768
311.8000,0.262795
311.6000,0.263809
311.4000,0.264839
311.2000,0.265867
311.0000,0.266918
310.8000,0.267959
310.6000,0.269047
310.4000,0.270126
310.2000,0.271253
310.0000,0.272393
309.8000,0.273528
309.6000,0.274732
309.4000,0.27594
309.2000,0.277141
309.0000,0.278371
308.8000,0.279552
308.6000,0.280819
308.4000,0.282064
308.2000,0.283319
308.0000,0.284585
307.8000,0.285912
307.6000,0.287253
307.4000,0.288546
307.2000,0.289932
307.0000,0.291347
306.8000,0.292693
306.6000,0.294067
306.4000,0.295464
306.2000,0.296936
306.0000,0.298438
305.8000,0.299858
305.6000,0.301363
305.4000,0.302923
305.2000,0.304457
305.0000,0.30603
304.8000,0.307639
304.6000,0.309219
304.4000,0.310885
304.2000,0.312556
304.0000,0.31426
303.8000,0.315944
303.6000,0.317644
303.4000,0.319352
303.2000,0.321096
303.0000,0.322857
302.8000,0.324666
302.6000,0.32644
302.4000,0.328281
302.2000,0.330095
302.0000,0.331932
301.8000,0.333826
301.6000,0.335701
301.4000,0.337613
301.2000,0.339547
301.0000,0.341567
300.8000,0.34348
300.6000,0.345459
300.4000,0.347516
300.2000,0.349514
300.0000,0.351588
299.8000,0.353636
299.6000,0.355668
299.4000,0.357821
299.2000,0.359934
299.0000,0.362081
298.8000,0.364238
298.6000,0.366446
298.4000,0.368666
298.2000,0.370914
298.0000,0.373166
297.8000,0.375467
297.6000,0.377794
297.4000,0.380113
297.2000,0.38245
297.0000,0.384842
296.8000,0.387253
296.6000,0.389671
296.4000,0.392111
296.2000,0.394547
296.0000,0.397042
295.8000,0.399591
295.6000,0.40213
295.4000,0.40472
295.2000,0.407353
295.0000,0.409966
294.8000,0.412619
294.6000,0.415283
294.4000,0.417994
294.2000,0.420708
294.0000,0.42342
293.8000,0.426209
293.6000,0.42899
293.4000,0.431849
293.2000,0.434679
293.0000,0.43755
292.8000,0.440439
292.6000,0.443319
292.4000,0.446289
292.2000,0.449191
292.0000,0.452193
291.8000,0.455216
291.6000,0.458255
291.4000,0.461289
291.2000,0.464319
291.0000,0.467452
290.8000,0.470577
290.6000,0.473727
290.4000,0.476937
290.2000,0.480174
290.0000,0.483406
289.8000,0.486734
289.6000,0.490079
289.4000,0.493424
289.2000,0.496795
289.0000,0.500178
288.8000,0.503591
288.6000,0.507054
288.4000,0.510514
288.2000,0.513987
288.0000,0.517529
287.8000,0.521095
287.6000,0.524665
287.4000,0.52827
287.2000,0.531938
287.0000,0.535571
286.8000,0.539304
286.6000,0.543031
286.4000,0.546781
286.2000,0.550602
286.0000,0.554373
285.8000,0.558237
285.6000,0.561992
285.4000,0.565884
285.2000,0.569765
285.0000,0.573699
284.8000,0.577661
284.6000,0.581608
284.4000,0.585643
284.2000,0.58965
284.0000,0.593701
283.8000,0.597789
283.6000,0.601879
283.4000,0.605958
283.2000,0.6101
283.0000,0.614283
282.8000,0.618569
282.6000,0.622842
282.4000,0.627139
282.2000,0.631503
282.0000,0.635878
281.8000,0.640345
281.6000,0.64481
281.4000,0.64935
281.2000,0.653962
281.0000,0.658597
280.8000,0.663342
280.6000,0.668132
280.4000,0.67299
280.2000,0.677937
280.0000,0.682981
279.8000,0.688059
279.6000,0.693264
279.4000,0.698503
279.2000,0.703934
279.0000,0.709368
278.8000,0.714948
278.6000,0.720607
278.4000,0.726367
278.2000,0.732247
278.0000,0.738206
277.8000,0.744295
277.6000,0.750455
277.4000,0.756676
277.2000,0.763016
277.0000,0.769516
276.8000,0.776075
276.6000,0.782666
276.4000,0.789386
276.2000,0.796194
276.0000,0.803134
275.8000,0.810136
275.6000,0.817205
275.4000,0.824363
275.2000,0.831627
275.0000,0.838929
274.8000,0.846309
274.6000,0.853781
274.4000,0.861194
274.2000,0.868697
274.0000,0.876213
273.8000,0.883706
273.6000,0.891211
273.4000,0.89878
273.2000,0.906341
273.0000,0.913953
272.8000,0.921499
272.6000,0.929021
272.4000,0.936487
272.2000,0.943855
272.0000,0.951219
271.8000,0.958501
271.6000,0.965757
271.4000,0.972889
271.2000,0.979965
271.0000,0.986977
270.8000,0.993894
270.6000,1.00067
270.4000,1.00736
270.2000,1.01396
270.0000,1.02038
269.8000,1.02671
269.6000,1.03289
269.4000,1.03893
269.2000,1.04483
269.0000,1.05057
268.8000,1.05609
268.6000,1.06151
268.4000,1.06675
268.2000,1.07175
268.0000,1.07658
267.8000,1.08122
267.6000,1.08567
267.4000,1.08992
267.2000,1.09396
267.0000,1.09778
266.8000,1.10136
266.6000,1.1047
266.4000,1.10779
266.2000,1.11059
266.0000,1.11318
265.8000,1.11555
265.6000,1.11756
265.4000,1.11939
265.2000,1.12086
265.0000,1.12216
264.8000,1.12316
264.6000,1.12386
264.4000,1.12429
264.2000,1.12447
264.0000,1.12437
263.8000,1.12399
263.6000,1.12346
263.4000,1.12265
263.2000,1.12154
263.0000,1.12022
262.8000,1.11872
262.6000,1.11702
262.4000,1.11519
262.2000,1.11308
262.0000,1.11088
261.8000,1.10851
261.6000,1.10603
261.4000,1.1034
261.2000,1.10065
261.0000,1.09782
260.8000,1.09491
260.6000,1.09197
260.4000,1.08896
260.2000,1.08585
260.0000,1.08273
259.8000,1.0796
259.6000,1.07644
259.4000,1.07324
259.2000,1.0701
259.0000,1.06689
258.8000,1.06376
258.6000,1.06058
258.4000,1.05744
258.2000,1.05436
258.0000,1.05133
257.8000,1.04834
257.6000,1.04538
257.4000,1.0425
257.2000,1.0396
257.0000,1.03676
256.8000,1.03395
256.6000,1.03121
256.4000,1.0285
256.2000,1.02581
256.0000,1.02312
255.8000,1.02049
255.6000,1.01785
255.4000,1.01526
255.2000,1.01266
255.0000,1.01009
254.8000,1.00753
254.6000,1.00492
254.4000,1.00231
254.2000,0.999619
254.0000,0.996939
253.8000,0.994239
253.6000,0.991476
253.4000,0.988706
253.2000,0.985862
253.0000,0.98301
252.8000,0.980061
252.6000,0.977079
252.4000,0.973995
252.2000,0.97082
252.0000,0.967552
251.8000,0.964129
251.6000,0.960653
251.4000,0.957023
251.2000,0.953305
251.0000,0.949473
250.8000,0.945536
250.6000,0.941455
250.4000,0.937247
250.2000,0.932854
250.0000,0.928344
249.8000,0.92368
249.6000,0.918889
249.4000,0.913952
249.2000,0.908895
249.0000,0.903695
248.8000,0.898373
248.6000,0.892934
248.4000,0.887344
248.2000,0.88168
248.0000,0.875906
247.8000,0.870067
247.6000,0.864141
247.4000,0.858152
247.2000,0.852092
247.0000,0.845967
246.8000,0.83981
246.6000,0.833599
246.4000,0.827399
246.2000,0.82118
246.0000,0.814957
245.8000,0.808769
245.6000,0.80262
245.4000,0.796542
245.2000,0.790491
245.0000,0.784532
244.8000,0.778612
244.6000,0.772795
244.4000,0.767051
244.2000,0.761433
244.0000,0.755957
243.8000,0.750656
243.6000,0.745481
243.4000,0.740469
243.2000,0.735611
243.0000,0.730999
242.8000,0.72655
242.6000,0.722308
242.4000,0.718305
242.2000,0.714504
242.0000,0.710974
241.8000,0.7077
241.6000,0.704713
241.4000,0.701981
241.2000,0.699526
241.0000,0.697372
240.8000,0.695573
240.6000,0.694088
240.4000,0.692946
240.2000,0.692144
240.0000,0.691714
239.8000,0.691664
239.6000,0.692014
239.4000,0.692777
239.2000,0.693966
239.0000,0.695594
238.8000,0.697652
238.6000,0.700179
238.4000,0.703225
238.2000,0.706725
238.0000,0.710757
237.8000,0.715306
237.6000,0.720348
237.4000,0.725895
237.2000,0.732013
237.0000,0.738688
236.8000,0.745926
236.6000,0.753641
236.4000,0.761868
236.2000,0.770621
236.0000,0.779903
235.8000,0.789684
235.6000,0.799936
235.4000,0.810656
235.2000,0.821804
235.0000,0.833395
234.8000,0.845418
234.6000,0.857834
234.4000,0.870592
234.2000,0.88369
234.0000,0.897108
233.8000,0.910806
233.6000,0.924692
233.4000,0.938712
233.2000,0.952827
233.0000,0.966944
232.8000,0.980936
232.6000,0.994821
232.4000,1.00852
232.2000,1.02188
232.0000,1.03477
231.8000,1.04725
231.6000,1.05919
231.4000,1.0705
231.2000,1.08115
231.0000,1.09105
230.8000,1.1001
230.6000,1.10832
230.4000,1.1156
230.2000,1.12204
230.0000,1.12765
229.8000,1.13244
229.6000,1.13634
229.4000,1.13944
229.2000,1.14175
229.0000,1.14329
228.8000,1.14414
228.6000,1.14435
228.4000,1.1439
228.2000,1.14283
228.0000,1.14123
227.8000,1.13915
227.6000,1.13661
227.4000,1.13368
227.2000,1.13037
227.0000,1.1268
226.8000,1.12306
226.6000,1.11915
226.4000,1.11511
226.2000,1.11087
226.0000,1.10651
225.8000,1.10209
225.6000,1.09759
225.4000,1.09294
225.2000,1.08822
225.0000,1.08325
224.8000,1.07821
224.6000,1.07307
224.4000,1.06789
224.2000,1.06254
224.0000,1.05711
223.8000,1.05158
223.6000,1.04607
223.4000,1.04044
223.2000,1.0347
223.0000,1.02899
222.8000,1.02322
222.6000,1.01751
222.4000,1.01176
222.2000,1.00598
222.0000,1.00025
221.8000,0.994584
221.6000,0.988969
221.4000,0.983418
221.2000,0.977939
221.0000,0.972499
220.8000,0.967188
220.6000,0.961957
220.4000,0.956804
220.2000,0.951721
220.0000,0.946789
219.8000,0.942061
219.6000,0.937454
219.4000,0.933013
219.2000,0.928732
219.0000,0.924617
218.8000,0.920654
218.6000,0.916997
218.4000,0.913478
218.2000,0.910204
218.0000,0.907103
217.8000,0.90427
217.6000,0.901616
217.4000,0.899162
217.2000,0.896842
217.0000,0.894736
216.8000,0.892864
216.6000,0.891179
216.4000,0.889772
216.2000,0.888506
216.0000,0.887446
215.8000,0.886638
215.6000,0.886005
215.4000,0.885573
215.2000,0.885313
215.0000,0.885227
214.8000,0.88536
214.6000,0.88575
214.4000,0.886358
214.2000,0.887165
214.0000,0.888117
213.8000,0.889319
213.6000,0.8907
213.4000,0.892275
213.2000,0.894151
213.0000,0.896242
212.8000,0.89858
212.6000,0.901159
212.4000,0.903917
212.2000,0.906954
212.0000,0.910263
211.8000,0.913731
211.6000,0.917399
211.4000,0.921204
211.2000,0.92533
211.0000,0.929613
210.8000,0.93408
210.6000,0.93873
210.4000,0.943647
210.2000,0.948772
210.0000,0.953985
209.8000,0.95944
209.6000,0.965127
209.4000,0.970914
209.2000,0.976904
209.0000,0.983096
208.8000,0.989457
208.6000,0.996122
208.4000,1.00287
208.2000,1.00971
208.0000,1.01674
207.8000,1.0241
207.6000,1.03182
207.4000,1.03961
207.2000,1.04763
207.0000,1.05595
206.8000,1.06419
206.6000,1.07261
206.4000,1.08128
206.2000,1.09018
206.0000,1.09926
205.8000,1.10842
205.6000,1.11798
205.4000,1.12776
205.2000,1.13764
205.0000,1.14776
204.8000,1.15783
204.6000,1.16833
204.4000,1.17914
204.2000,1.19023
204.0000,1.20134
203.8000,1.21253
203.6000,1.22402
203.4000,1.23559
203.2000,1.24733
203.0000,1.25939
202.8000,1.27175
202.6000,1.28408
202.4000,1.29686
202.2000,1.30959
202.0000,1.32241
201.8000,1.33569
201.6000,1.34907
201.4000,1.36241
201.2000,1.37555
201.0000,1.38927
200.8000,1.40362
200.6000,1.4177
200.4000,1.43218
200.2000,1.44692
200.0000,1.46183

##### Extended Information
[コメント情報]
試料名,231010-Ru(phen)3-100
コメント
測定者
所属
会社,日本大学文理学部

[データ情報]
作成日時,2023/10/10 13:52

データタイプ,等間隔データ
横軸,Wavelength [nm]
縦軸,Abs
スタート,900 nm
エンド,200 nm
データ間隔,0.2 nm
データ数,3501    

[測定情報]
装置名,V-730
機種名,V-730
シリアル番号,C235561798

付属品名,USE-753
付属品シリアルNo.,C235561798
  セル,
  対照光束,

測定日時,2023/10/10 13:05

測光モード,Abs
測定範囲,900 - 200 nm
データ取込間隔,0.2 nm
バンド幅,1.0 nm
レスポンス,0.96 sec
走査モード,連続
走査速度,400 nm/min
光源切換,340 nm
光源,D2/WI
フィルター切換,ステップ
補正,ベースライン
繰返し回数,1

